EC-Lab ASCII FILE
Nb header lines : 55                          

I-V Characterization

Run on channel : 1 (SN 6514)
User : 
CE vs. WE compliance from -10 V to 10 V
Electrode connection : standard
Ewe ctrl range : min = -1.10 V, max = 0.20 V
Safety Limits :
	Do not start on E overload
Acquisition started on : 06/15/2016 18:16:26
Saved on :
	File : B125-G54-UN-G-D1GB-C7 FW 10mVs dark_C01.mpr
	Directory : E:\EC-Lab measurements\B125-G54-UN-G-D1GB\
	Host : 10.0.2.15
Device : VSP (SN 0295)
Address : USB
EC-Lab for windows v11.01 (software)
Internet server v11.00 (firmware)
Command interpretor v11.00 (firmware)
Electrode material : 
Initial state : 
Electrolyte : 
Comments : 
Electrode surface area : 0.001 cm²
Characteristic mass : 0.001 g
Equivalent Weight : 0.000 g/eq.
Density : 0.000 g/cm3
tR (h:m:s)          0:00:0.0000         
dER/dt (mV/h)       0.0                 
dER (mV)            0                   
dtR (s)             0.0000              
dE/dt               10.000              
dE/dt unit          mV/s                
Ei (V)              0.100               
vs.                 Ref                 
EL (V)              -1.000              
vs.                 Ref                 
record              <I>                 
dI                  0.000               
unit dI             µA                  
tI (s)              0.1000              
step percent        100                 
N                   100                 
E range min (V)     -1.100              
E range max (V)     0.200               
I Range             Auto                
I Range min         Unset               
I Range max         Unset               
I Range init        Unset               
Bandwidth           5                   

mode	ox/red	error	control changes	time/s	control/V	Ewe/V	<I>/mA	P/W
2	0	0	0	8.499999785271939E-002	9.9696882E-002	9.9745922E-002	1.224161372520029E-003	1.2210511E-007
2	0	0	1	3.552999910243670E-001	9.6993022E-002	9.6969858E-002	5.966078223177840E-004	5.7852976E-008
2	0	0	1	8.733999779360602E-001	9.1812029E-002	9.1780201E-002	2.733644551260392E-004	2.5089445E-008
2	0	0	0	1.373999965289840E+000	8.6806051E-002	8.6769298E-002	2.079593848263790E-004	1.8044490E-008
2	0	0	1	1.874599952643621E+000	8.1800044E-002	8.1774652E-002	1.773742124043666E-004	1.4504715E-008
2	0	0	0	2.375199939997401E+000	7.6794043E-002	7.6772422E-002	1.565277160722038E-004	1.2017011E-008
2	0	0	0	2.875999927346129E+000	7.1786121E-002	7.1741179E-002	1.410274451565257E-004	1.0117475E-008
2	0	0	1	3.376599914699909E+000	6.6780135E-002	6.6750169E-002	1.267636423258388E-004	8.4614946E-009
2	0	0	0	3.877199902053690E+000	6.1774112E-002	6.1745588E-002	1.130438443775715E-004	6.9799584E-009
2	0	0	1	4.377799889407470E+000	5.6768093E-002	5.6739204E-002	9.918156219663489E-005	5.6274829E-009
2	0	0	0	4.878399876761250E+000	5.1762115E-002	5.1725496E-002	8.690728511444009E-005	4.4953223E-009
2	0	0	1	5.378999864115031E+000	4.6756130E-002	4.6721030E-002	7.530616958606657E-005	3.5183818E-009
2	0	0	0	5.879599851468811E+000	4.1750122E-002	4.1709714E-002	6.325374939258660E-005	2.6382958E-009
2	0	0	1	6.380199838822591E+000	3.6744118E-002	3.6716979E-002	5.238328896442176E-005	1.9233561E-009
2	0	0	0	6.880899826173845E+000	3.1737167E-002	3.1706609E-002	4.132776391318300E-005	1.3103633E-009
2	0	0	0	7.381599813525099E+000	2.6730217E-002	2.6710011E-002	3.024490325678942E-005	8.0784168E-010
2	0	0	1	7.882199800878880E+000	2.1724198E-002	2.1674955E-002	1.977789700724383E-005	4.2868503E-010
2	0	0	0	8.382799788232660E+000	1.6718226E-002	1.6676145E-002	9.606615147169198E-006	1.6020131E-010
2	0	0	1	8.883399775586440E+000	1.1712189E-002	1.1662567E-002	1.096979714388822E-007	1.2793600E-012
2	0	0	0	9.383999762940221E+000	6.7062140E-003	6.6495114E-003	-9.295899141575144E-006	6.1813187E-011
2	0	0	1	9.884599750294001E+000	1.6997777E-003	1.6588536E-003	-1.865433305024309E-005	3.0944809E-011
2	0	0	0	1.038519973764778E+001	-3.3057677E-003	-3.3633832E-003	-2.783590007156241E-005	9.3622797E-011
2	0	0	1	1.088579972500156E+001	-8.3118044E-003	-8.3637908E-003	-3.679462011891817E-005	3.0774250E-010
2	0	0	0	1.138649971235282E+001	-1.3318791E-002	-1.3359471E-002	-4.552283795816866E-005	6.0816102E-010
2	0	0	0	1.188719969970407E+001	-1.8325802E-002	-1.8355384E-002	-5.418621868918602E-005	9.9460884E-010
2	0	0	1	1.238779968705785E+001	-2.3331800E-002	-2.3373142E-002	-6.308836548614356E-005	1.4745734E-009
2	0	0	0	1.288839967441163E+001	-2.8337793E-002	-2.8360961E-002	-7.233980873532571E-005	2.0516264E-009
2	0	0	1	1.338899966176541E+001	-3.3343829E-002	-3.3375200E-002	-8.035010818900894E-005	2.6817009E-009
2	0	0	0	1.388959964911919E+001	-3.8349833E-002	-3.8372979E-002	-8.952063963197079E-005	3.4351735E-009
2	0	0	1	1.439019963647297E+001	-4.3355845E-002	-4.3391518E-002	-9.834502792519569E-005	4.2673403E-009
2	0	0	0	1.489079962382675E+001	-4.8361842E-002	-4.8398830E-002	-1.066616524036950E-004	5.1622990E-009
2	0	0	1	1.539139961118053E+001	-5.3367905E-002	-5.3414918E-002	-1.141311191402564E-004	6.0963044E-009
2	0	0	0	1.589209959853179E+001	-5.8374841E-002	-5.8399417E-002	-1.243847955338133E-004	7.2639996E-009
2	0	0	0	1.639279958588304E+001	-6.3381836E-002	-6.3422620E-002	-1.336705833008306E-004	8.4777385E-009
2	0	0	1	1.689339957323682E+001	-6.8387873E-002	-6.8422854E-002	-1.407997482365373E-004	9.6339203E-009
2	0	0	0	1.739399956059060E+001	-7.3393889E-002	-7.3414318E-002	-1.485190225261790E-004	1.0903423E-008
2	0	0	1	1.789459954794438E+001	-7.8399934E-002	-7.8424126E-002	-1.556226392558720E-004	1.2204570E-008
2	0	0	0	1.839519953529816E+001	-8.3405934E-002	-8.3451912E-002	-1.657739116964411E-004	1.3834150E-008
2	0	0	1	1.889579952265194E+001	-8.8411950E-002	-8.8446021E-002	-1.754981952274122E-004	1.5522117E-008
2	0	0	0	1.939639951000572E+001	-9.3417943E-002	-9.3442380E-002	-1.846894703826413E-004	1.7257824E-008
2	0	0	1	1.989699949735950E+001	-9.8423980E-002	-9.8454066E-002	-1.914410138544589E-004	1.8848146E-008
2	0	0	1	2.039779948470823E+001	-1.0343193E-001	-1.0346126E-001	-2.011328437893829E-004	2.0809457E-008
2	0	0	0	2.089839947206201E+001	-1.0843797E-001	-1.0846730E-001	-2.114851709999100E-004	2.2939224E-008
2	0	0	1	2.139899945941579E+001	-1.1344399E-001	-1.1346728E-001	-2.238463979323977E-004	2.5399242E-008
2	0	0	0	2.189959944676957E+001	-1.1844996E-001	-1.1848018E-001	-2.317999353755227E-004	2.7463697E-008
2	0	0	1	2.240019943412335E+001	-1.2345599E-001	-1.2348303E-001	-2.408771780680417E-004	2.9744244E-008
2	0	0	0	2.290079942147713E+001	-1.2846203E-001	-1.2849185E-001	-2.526955402865037E-004	3.2469316E-008
2	0	0	1	2.340139940883091E+001	-1.3346803E-001	-1.3349314E-001	-2.597098620306952E-004	3.4669483E-008
2	0	0	0	2.390199939618469E+001	-1.3847402E-001	-1.3850771E-001	-2.706594334896690E-004	3.7488419E-008
2	0	0	1	2.440269938353595E+001	-1.4348108E-001	-1.4353351E-001	-2.820322089929648E-004	4.0481073E-008
2	0	0	1	2.490339937088720E+001	-1.4848803E-001	-1.4852704E-001	-2.940267278942971E-004	4.3670919E-008
2	0	0	0	2.540399935824098E+001	-1.5349407E-001	-1.5353118E-001	-3.043823543751778E-004	4.6732183E-008
2	0	0	1	2.590459934559476E+001	-1.5850008E-001	-1.5853973E-001	-3.158344925971871E-004	5.0072316E-008
2	0	0	0	2.640519933294854E+001	-1.6350608E-001	-1.6356041E-001	-3.314576836429143E-004	5.4213352E-008
2	0	0	1	2.690579932030232E+001	-1.6851209E-001	-1.6856788E-001	-3.408148206472423E-004	5.7450432E-008
2	0	0	0	2.740639930765610E+001	-1.7351815E-001	-1.7357929E-001	-3.485431636645591E-004	6.0499872E-008
2	0	0	1	2.790699929500988E+001	-1.7852414E-001	-1.7858164E-001	-3.635264510536253E-004	6.4919149E-008
2	0	0	0	2.840759928236366E+001	-1.8353018E-001	-1.8360367E-001	-3.765624642237207E-004	6.9138252E-008
2	0	0	1	2.890829926971492E+001	-1.8853714E-001	-1.8859847E-001	-3.892034316302201E-004	7.3403172E-008
2	0	0	1	2.940899925706617E+001	-1.9354412E-001	-1.9361451E-001	-4.008702841249373E-004	7.7614303E-008
2	0	0	0	2.990959924441995E+001	-1.9855015E-001	-1.9861849E-001	-4.177405333032789E-004	8.2970992E-008
2	0	0	1	3.041019923177373E+001	-2.0355619E-001	-2.0363869E-001	-4.314998190982858E-004	8.7870056E-008
2	0	0	0	3.091079921912751E+001	-2.0856215E-001	-2.0864198E-001	-4.446568616615640E-004	9.2774087E-008
2	0	0	1	3.141139920648129E+001	-2.1356824E-001	-2.1364135E-001	-4.574096633946610E-004	9.7721617E-008
2	0	0	0	3.191199919383507E+001	-2.1857421E-001	-2.1865542E-001	-4.735538645288862E-004	1.0354512E-007
2	0	0	1	3.241259918118885E+001	-2.2358017E-001	-2.2365502E-001	-4.903607781425645E-004	1.0967165E-007
2	0	0	0	3.291319916854263E+001	-2.2858624E-001	-2.2865327E-001	-5.065877347493111E-004	1.1583294E-007
2	0	0	1	3.341389915589389E+001	-2.3359321E-001	-2.3365954E-001	-5.230057291921137E-004	1.2220528E-007
2	0	0	1	3.391459914324514E+001	-2.3860022E-001	-2.3867123E-001	-5.392702665446246E-004	1.2870829E-007
2	0	0	0	3.441519913059892E+001	-2.4360624E-001	-2.4367379E-001	-5.583952479115452E-004	1.3606629E-007
2	0	0	1	3.491579911795270E+001	-2.4861224E-001	-2.4864192E-001	-5.773186157108853E-004	1.4354561E-007
2	0	0	0	3.541639910530648E+001	-2.5361827E-001	-2.5365561E-001	-5.961681730520755E-004	1.5122140E-007
2	0	0	1	3.591699909266026E+001	-2.5862426E-001	-2.5867367E-001	-6.190067757696309E-004	1.6012075E-007
2	0	0	0	3.641759908001404E+001	-2.6363027E-001	-2.6368582E-001	-6.404469344480461E-004	1.6887678E-007
2	0	0	1	3.691819906736782E+001	-2.6863626E-001	-2.6867917E-001	-6.603353167498917E-004	1.7741834E-007
2	0	0	0	3.741879905472160E+001	-2.7364233E-001	-2.7367213E-001	-6.845900793264179E-004	1.8735322E-007
2	0	0	0	3.791959904207033E+001	-2.7865031E-001	-2.7869508E-001	-7.094698632130816E-004	1.9772575E-007
2	0	0	1	3.842019902942411E+001	-2.8365627E-001	-2.8369701E-001	-7.401772209220279E-004	2.0998607E-007
2	0	0	0	3.892079901677789E+001	-2.8866231E-001	-2.8869399E-001	-7.665174729559101E-004	2.2128899E-007
2	0	0	1	3.942139900413167E+001	-2.9366833E-001	-2.9369888E-001	-7.887081926245595E-004	2.3164272E-007
2	0	0	0	3.992199899148545E+001	-2.9867443E-001	-2.9872075E-001	-8.177737775043638E-004	2.4428599E-007
2	0	0	1	4.042259897883923E+001	-3.0368048E-001	-3.0373731E-001	-8.488425075818358E-004	2.5782515E-007
2	0	0	0	4.092319896619301E+001	-3.0868647E-001	-3.0873960E-001	-8.773329856151045E-004	2.7086745E-007
2	0	0	1	4.142379895354679E+001	-3.1369245E-001	-3.1373820E-001	-9.152602375369417E-004	2.8715209E-007
2	0	0	0	4.192449894089805E+001	-3.1869951E-001	-3.1876156E-001	-9.470496550736864E-004	3.0188303E-007
2	0	0	0	4.242519892824930E+001	-3.2370645E-001	-3.2374534E-001	-9.801013883212525E-004	3.1730326E-007
2	0	0	1	4.292579891560308E+001	-3.2871246E-001	-3.2873511E-001	-1.018693422736227E-003	3.3488030E-007
2	0	0	0	4.342639890295686E+001	-3.3371848E-001	-3.3374497E-001	-1.055331192356496E-003	3.5221149E-007
2	0	0	1	4.392699889031064E+001	-3.3872449E-001	-3.3874696E-001	-1.097055450774043E-003	3.7162420E-007
2	0	0	0	4.442759887766442E+001	-3.4373048E-001	-3.4377217E-001	-1.139881100282437E-003	3.9185940E-007
2	0	0	1	4.492819886501820E+001	-3.4873649E-001	-3.4877723E-001	-1.185705796882638E-003	4.1354718E-007
2	0	0	0	4.542879885237198E+001	-3.5374245E-001	-3.5378891E-001	-1.232797254407166E-003	4.3615000E-007
2	0	0	1	4.592939883972576E+001	-3.5874847E-001	-3.5879052E-001	-1.281599821735733E-003	4.5982586E-007
2	0	0	0	4.643009882707702E+001	-3.6375543E-001	-3.6381203E-001	-1.328699896443970E-003	4.8339700E-007
2	0	0	0	4.693079881442827E+001	-3.6876246E-001	-3.6880580E-001	-1.377628631243060E-003	5.0807745E-007
2	0	0	1	4.743139880178205E+001	-3.7376851E-001	-3.7380207E-001	-1.433072747198576E-003	5.3568556E-007
2	0	0	0	4.793199878913583E+001	-3.7877455E-001	-3.7881532E-001	-1.482160664738851E-003	5.6146519E-007
2	0	0	1	4.843259877648961E+001	-3.8378063E-001	-3.8383654E-001	-1.540908568956721E-003	5.9145702E-007
2	0	0	0	4.893319876384339E+001	-3.8878661E-001	-3.8882548E-001	-1.611003704169667E-003	6.2639930E-007
2	0	0	1	4.943379875119717E+001	-3.9379266E-001	-3.9383787E-001	-1.670338841186197E-003	6.5784269E-007
2	0	0	0	4.993439873855095E+001	-3.9879864E-001	-3.9885637E-001	-1.740006879903340E-003	6.9401284E-007
2	0	0	1	5.043499872590473E+001	-4.0380463E-001	-4.0385768E-001	-1.813411448314123E-003	7.3236015E-007
2	0	0	1	5.093579871325346E+001	-4.0881258E-001	-4.0885404E-001	-1.888350139244908E-003	7.7205959E-007
2	0	0	0	5.143639870060724E+001	-4.1381860E-001	-4.1385385E-001	-1.961856159287918E-003	8.1192172E-007
2	0	0	1	5.193699868796102E+001	-4.1882458E-001	-4.1887322E-001	-2.045418998252523E-003	8.5677124E-007
2	0	0	0	5.243759867531480E+001	-4.2383060E-001	-4.2387897E-001	-2.126962470785622E-003	9.0157465E-007
2	0	0	1	5.293819866266858E+001	-4.2883664E-001	-4.2886186E-001	-2.214302164798156E-003	9.4962974E-007
2	0	0	0	5.343879865002236E+001	-4.3384260E-001	-4.3387836E-001	-2.307971277014445E-003	1.0013788E-006
2	0	0	1	5.393939863737614E+001	-4.3884858E-001	-4.3888316E-001	-2.392546973143370E-003	1.0500486E-006
2	0	0	0	5.443999862472992E+001	-4.4385463E-001	-4.4388857E-001	-2.499843748708045E-003	1.1096521E-006
2	0	0	1	5.494059861208370E+001	-4.4886065E-001	-4.4889334E-001	-2.593621346496905E-003	1.1642593E-006
2	0	0	1	5.544139859943243E+001	-4.5386860E-001	-4.5390460E-001	-2.698275694980736E-003	1.2247598E-006
2	0	0	0	5.594199858678621E+001	-4.5887461E-001	-4.5891678E-001	-2.806762855530366E-003	1.2880706E-006
2	0	0	1	5.644259857413999E+001	-4.6388066E-001	-4.6392235E-001	-2.924107708526190E-003	1.3565589E-006
2	0	0	0	5.694319856149377E+001	-4.6888673E-001	-4.6893618E-001	-3.046251532252020E-003	1.4284975E-006
2	0	0	1	5.744379854884755E+001	-4.7389278E-001	-4.7394881E-001	-3.178183709035748E-003	1.5062964E-006
2	0	0	0	5.794439853620133E+001	-4.7889873E-001	-4.7894359E-001	-3.305488889566117E-003	1.5831426E-006
2	0	0	1	5.844499852355511E+001	-4.8390469E-001	-4.8394522E-001	-3.449720877475679E-003	1.6694760E-006
2	0	0	0	5.894559851090889E+001	-4.8891073E-001	-4.8897135E-001	-3.583197271932084E-003	1.7520808E-006
2	0	0	1	5.944629849826015E+001	-4.9391770E-001	-4.9398366E-001	-3.733279062402804E-003	1.8441789E-006
2	0	0	1	5.994699848561140E+001	-4.9892470E-001	-4.9898982E-001	-3.888520919399847E-003	1.9403324E-006
2	0	0	0	6.044759847296518E+001	-5.0393069E-001	-5.0398666E-001	-4.048924748038779E-003	2.0406042E-006
2	0	0	1	6.094819846031896E+001	-5.0893670E-001	-5.0900573E-001	-4.205439983641909E-003	2.1405931E-006
2	0	0	0	6.144879844767274E+001	-5.1394272E-001	-5.1401800E-001	-4.380287175523984E-003	2.2515464E-006
2	0	0	1	6.194939843502652E+001	-5.1894873E-001	-5.1902050E-001	-4.555971601262476E-003	2.3646426E-006
2	0	0	0	6.244999842238030E+001	-5.2395475E-001	-5.2401918E-001	-4.735391234999012E-003	2.4814358E-006
2	0	0	1	6.295059840973408E+001	-5.2896076E-001	-5.2901065E-001	-4.921589522020562E-003	2.6035732E-006
2	0	0	0	6.345119839708786E+001	-5.3396678E-001	-5.3403163E-001	-5.126400602943060E-003	2.7376600E-006
2	0	0	1	6.395189838443912E+001	-5.3897381E-001	-5.3904974E-001	-5.337963129099413E-003	2.8774277E-006
2	0	0	1	6.445259837179037E+001	-5.4398078E-001	-5.4404336E-001	-5.550948139784392E-003	3.0199565E-006
2	0	0	0	6.495319835914415E+001	-5.4898679E-001	-5.4904079E-001	-5.769218285397181E-003	3.1675361E-006
2	0	0	1	6.545379834649793E+001	-5.5399293E-001	-5.5406761E-001	-5.998967914677203E-003	3.3238339E-006
2	0	0	0	6.595439833385171E+001	-5.5899894E-001	-5.5907369E-001	-6.229969543921077E-003	3.4830121E-006
2	0	0	1	6.645499832120549E+001	-5.6400496E-001	-5.6406945E-001	-6.470749582363138E-003	3.6499521E-006
2	0	0	0	6.695559830855927E+001	-5.6901097E-001	-5.6907481E-001	-6.722519717002384E-003	3.8256167E-006
2	0	0	1	6.745619829591305E+001	-5.7401699E-001	-5.7409674E-001	-6.991303188775042E-003	4.0136842E-006
2	0	0	0	6.795679828326683E+001	-5.7902300E-001	-5.7907504E-001	-7.263659267612660E-003	4.2062038E-006
2	0	0	0	6.845759827061556E+001	-5.8403081E-001	-5.8408839E-001	-7.537153974764069E-003	4.4023641E-006
2	0	0	1	6.895819825796934E+001	-5.8903694E-001	-5.8909702E-001	-7.831422535253818E-003	4.6134678E-006
2	0	0	0	6.945879824532312E+001	-5.9404302E-001	-5.9410423E-001	-8.127734932562261E-003	4.8287216E-006
2	0	0	1	6.995939823267690E+001	-5.9904909E-001	-5.9910738E-001	-8.440662571020052E-003	5.0568633E-006
2	0	0	0	7.045999822003068E+001	-6.0405493E-001	-6.0411680E-001	-8.764545643529492E-003	5.2948094E-006
2	0	0	1	7.096059820738446E+001	-6.0906100E-001	-6.0912871E-001	-9.102875382225191E-003	5.5448227E-006
2	0	0	0	7.146119819473824E+001	-6.1406702E-001	-6.1413878E-001	-9.441443997301457E-003	5.7983571E-006
2	0	0	1	7.196179818209202E+001	-6.1907309E-001	-6.1914182E-001	-9.804345812073359E-003	6.0702805E-006
2	0	0	0	7.247999816900119E+001	-6.2425488E-001	-6.2432235E-001	-1.018808901521159E-002	6.3606517E-006
2	0	0	1	7.299819815591036E+001	-6.2943709E-001	-6.2950009E-001	-1.059367211113953E-002	6.6687176E-006
2	0	0	0	7.349879814326414E+001	-6.3444304E-001	-6.3450348E-001	-1.098380332623425E-002	6.9692614E-006
2	0	0	1	7.399939813061792E+001	-6.3944918E-001	-6.3950104E-001	-1.137894144589074E-002	7.2768448E-006
2	0	0	0	7.449999811797170E+001	-6.4445508E-001	-6.4449942E-001	-1.181060786154764E-002	7.6119300E-006
2	0	0	1	7.500059810532548E+001	-6.4946115E-001	-6.4950466E-001	-1.225934203213419E-002	7.9624997E-006
2	0	0	0	7.550119809267926E+001	-6.5446728E-001	-6.5450037E-001	-1.269598349100851E-002	8.3095256E-006
2	0	0	1	7.600189808003051E+001	-6.5947419E-001	-6.5951008E-001	-1.317639852170537E-002	8.6899672E-006
2	0	0	1	7.650259806738177E+001	-6.6448122E-001	-6.6452110E-001	-1.364740103953532E-002	9.0689855E-006
2	0	0	0	7.700319805473555E+001	-6.6948718E-001	-6.6952819E-001	-1.412752279710303E-002	9.4587749E-006
2	0	0	1	7.750379804208933E+001	-6.7449325E-001	-6.7452914E-001	-1.464108311549550E-002	9.8758373E-006
2	0	0	0	7.800439802944311E+001	-6.7949903E-001	-6.7952776E-001	-1.515856895215711E-002	1.0300669E-005
2	0	0	1	7.850499801679689E+001	-6.8450522E-001	-6.8454057E-001	-1.570170152407804E-002	1.0748452E-005
2	0	0	0	7.900559800415067E+001	-6.8951112E-001	-6.8954223E-001	-1.624595713871937E-002	1.1202274E-005
2	0	0	1	7.950619799150445E+001	-6.9451737E-001	-6.9454426E-001	-1.680027193409889E-002	1.1668532E-005
2	0	0	0	8.000679797885823E+001	-6.9952315E-001	-6.9956344E-001	-1.739507318472891E-002	1.2168957E-005
2	0	0	1	8.050749796620948E+001	-7.0453030E-001	-7.0456898E-001	-1.800426651945135E-002	1.2685247E-005
2	0	0	1	8.100819795356074E+001	-7.0953721E-001	-7.0958525E-001	-1.860676036748815E-002	1.3203083E-005
2	0	0	0	8.150879794091452E+001	-7.1454322E-001	-7.1458822E-001	-1.925226346749878E-002	1.3757441E-005
2	0	0	1	8.200939792826830E+001	-7.1954912E-001	-7.1958113E-001	-1.991775058169541E-002	1.4332438E-005
2	0	0	0	8.250999791562208E+001	-7.2455543E-001	-7.2458750E-001	-2.056996954116119E-002	1.4904743E-005
2	0	0	1	8.301059790297586E+001	-7.2956133E-001	-7.2959006E-001	-2.124781080257043E-002	1.5502192E-005
2	0	0	0	8.351119789032964E+001	-7.3456734E-001	-7.3459500E-001	-2.193860156952236E-002	1.6115988E-005
2	0	0	1	8.401179787768342E+001	-7.3957354E-001	-7.3960143E-001	-2.266822432907573E-002	1.6765451E-005
2	0	0	0	8.451239786503720E+001	-7.4457937E-001	-7.4460834E-001	-2.340410702329881E-002	1.7426893E-005
2	0	0	1	8.501309785238846E+001	-7.4958646E-001	-7.4962491E-001	-2.415355629393279E-002	1.8106108E-005
2	0	0	1	8.551379783973971E+001	-7.5459319E-001	-7.5462931E-001	-2.492707285790863E-002	1.8810701E-005
2	0	0	0	8.601439782709349E+001	-7.5959939E-001	-7.5964463E-001	-2.572424394577599E-002	1.9541283E-005
2	0	0	1	8.651499781444727E+001	-7.6460522E-001	-7.6464522E-001	-2.653743851840495E-002	2.0291725E-005
2	0	0	0	8.701559780180105E+001	-7.6961142E-001	-7.6966202E-001	-2.735585373106400E-002	2.1054762E-005
2	0	0	1	8.751619778915483E+001	-7.7461720E-001	-7.7466142E-001	-2.819428574583303E-002	2.1841026E-005
2	0	0	0	8.801679777650861E+001	-7.7962351E-001	-7.7967203E-001	-2.905655795647716E-002	2.2654585E-005
2	0	0	1	8.851739776386239E+001	-7.8462929E-001	-7.8467429E-001	-2.996956037768098E-002	2.3516344E-005
2	0	0	0	8.901809775121365E+001	-7.8963643E-001	-7.8967816E-001	-3.086949796222982E-002	2.4376968E-005
2	0	0	0	8.951879773856490E+001	-7.9464322E-001	-7.9469228E-001	-3.178173393249939E-002	2.5256699E-005
2	0	0	1	9.001939772591868E+001	-7.9964954E-001	-7.9970402E-001	-3.273396663849704E-002	2.6177484E-005
2	0	0	0	9.051999771327246E+001	-8.0465543E-001	-8.0470830E-001	-3.371317474121727E-002	2.7129272E-005
2	0	0	1	9.102059770062624E+001	-8.0966145E-001	-8.0972272E-001	-3.468751079263144E-002	2.8087266E-005
2	0	0	0	9.152119768798002E+001	-8.1466752E-001	-8.1472975E-001	-3.568280432596194E-002	2.9071842E-005
2	0	0	1	9.202179767533380E+001	-8.1967342E-001	-8.1974387E-001	-3.670141289139262E-002	3.0085759E-005
2	0	0	0	9.252239766268758E+001	-8.2467967E-001	-8.2474434E-001	-3.775468613041377E-002	3.1137963E-005
2	0	0	1	9.302299765004136E+001	-8.2968551E-001	-8.2974625E-001	-3.883502721072019E-002	3.2223219E-005
2	0	0	0	9.352369763739262E+001	-8.3469260E-001	-8.3477134E-001	-3.989141064657221E-002	3.3300206E-005
2	0	0	0	9.402439762474387E+001	-8.3969939E-001	-8.3975202E-001	-4.099948696413640E-002	3.4429402E-005
2	0	0	1	9.452499761209765E+001	-8.4470552E-001	-8.4475362E-001	-4.212285806935301E-002	3.5583438E-005
2	0	0	0	9.502559759945143E+001	-8.4971130E-001	-8.4979028E-001	-4.328436993748153E-002	3.6782636E-005
2	0	0	1	9.552619758680521E+001	-8.5471755E-001	-8.5477012E-001	-4.444067060867829E-002	3.7986556E-005
2	0	0	0	9.602679757415899E+001	-8.5972327E-001	-8.5978031E-001	-4.564469514550151E-002	3.9244409E-005
2	0	0	1	9.652739756151277E+001	-8.6472964E-001	-8.6479205E-001	-4.686998770399853E-002	4.0532792E-005
2	0	0	0	9.702799754886655E+001	-8.6973542E-001	-8.6980498E-001	-4.808603723272464E-002	4.1825475E-005
2	0	0	1	9.752859753622033E+001	-8.7474167E-001	-8.7481755E-001	-4.931695063903813E-002	4.3143333E-005
2	0	0	0	9.802929752357159E+001	-8.7974846E-001	-8.7978280E-001	-5.058240761678801E-002	4.4501532E-005
2	0	0	0	9.852999751092284E+001	-8.8475567E-001	-8.8480765E-001	-5.186223441919313E-002	4.5888100E-005
2	0	0	1	9.903059749827662E+001	-8.8976151E-001	-8.8979781E-001	-5.316436208189906E-002	4.7305533E-005
2	0	0	0	9.953119748563040E+001	-8.9476758E-001	-8.9481151E-001	-5.450440926163040E-002	4.8771173E-005
2	0	0	1	1.000317974729842E+002	-8.9977372E-001	-8.9981812E-001	-5.584482940150282E-002	5.0250190E-005
2	0	0	0	1.005323974603380E+002	-9.0477955E-001	-9.0482801E-001	-5.722195579030853E-002	5.1776027E-005
2	0	0	1	1.010329974476917E+002	-9.0978575E-001	-9.0982604E-001	-5.860431074043262E-002	5.3319727E-005
2	0	0	0	1.015335974350455E+002	-9.1479152E-001	-9.1483587E-001	-6.000358428740316E-002	5.4893429E-005
2	0	0	1	1.020341974223993E+002	-9.1979778E-001	-9.1983515E-001	-6.140745572922524E-002	5.6484736E-005
2	0	0	1	1.025349974097480E+002	-9.2480540E-001	-9.2485738E-001	-6.287985111449912E-002	5.8154896E-005
2	0	0	0	1.030355973971018E+002	-9.2981166E-001	-9.2986518E-001	-6.432033323542713E-002	5.9809237E-005
2	0	0	1	1.035361973844556E+002	-9.3481749E-001	-9.3487823E-001	-6.580117720079182E-002	6.1516090E-005
2	0	0	0	1.040367973718094E+002	-9.3982369E-001	-9.3988335E-001	-6.730161121730860E-002	6.3255662E-005
2	0	0	1	1.045373973591632E+002	-9.4482940E-001	-9.4489324E-001	-6.881316842173674E-002	6.5021100E-005
2	0	0	0	1.050379973465169E+002	-9.4983578E-001	-9.4988149E-001	-7.034818939946430E-002	6.6822446E-005
2	0	0	1	1.055385973338707E+002	-9.5484149E-001	-9.5487404E-001	-7.191242654903607E-002	6.8667308E-005
2	0	0	0	1.060391973212245E+002	-9.5984781E-001	-9.5986968E-001	-7.349330211079810E-002	7.0543996E-005
2	0	0	1	1.065398973085757E+002	-9.6485448E-001	-9.6491128E-001	-7.507463255485636E-002	7.2440358E-005
2	0	0	1	1.070405972959270E+002	-9.6986169E-001	-9.6990007E-001	-7.669308062143698E-002	7.4384625E-005
2	0	0	0	1.075411972832808E+002	-9.7486764E-001	-9.7491252E-001	-7.833395560866063E-002	7.6368757E-005
2	0	0	1	1.080417972706346E+002	-9.7987360E-001	-9.7991848E-001	-7.996155212550238E-002	7.8355806E-005
2	0	0	0	1.085423972579883E+002	-9.8487973E-001	-9.8493111E-001	-8.161836217169471E-002	8.0388461E-005
2	0	0	1	1.090429972453421E+002	-9.8988557E-001	-9.8993772E-001	-8.329508350736781E-002	8.2456943E-005
2	0	0	0	1.095435972326959E+002	-9.9489188E-001	-9.9491400E-001	-8.499651012297260E-002	8.4564221E-005
2	0	0	1	1.099240972230837E+002	-9.9869567E-001	-9.9873817E-001	-8.630014837669953E-002	8.6191256E-005
2	0	0	0	1.100521972198476E+002	-1.0000215E+000	-1.0000570E+000	-8.676969259977341E-002	8.6774635E-005