EC-Lab ASCII FILE
Nb header lines : 55                          

I-V Characterization

Run on channel : 1 (SN 6514)
User : 
CE vs. WE compliance from -10 V to 10 V
Electrode connection : standard
Ewe ctrl range : min = -1.10 V, max = 0.20 V
Safety Limits :
	Do not start on E overload
Acquisition started on : 06/15/2016 19:14:32
Saved on :
	File : B125-G54-UN-G-D1GB-C15 BW 10mVs_C01.mpr
	Directory : E:\EC-Lab measurements\B125-G54-UN-G-D1GB\
	Host : 10.0.2.15
Device : VSP (SN 0295)
Address : USB
EC-Lab for windows v11.01 (software)
Internet server v11.00 (firmware)
Command interpretor v11.00 (firmware)
Electrode material : 
Initial state : 
Electrolyte : 
Comments : 
Electrode surface area : 0.001 cm²
Characteristic mass : 0.001 g
Equivalent Weight : 0.000 g/eq.
Density : 0.000 g/cm3
tR (h:m:s)          0:00:0.0000         
dER/dt (mV/h)       0.0                 
dER (mV)            0                   
dtR (s)             0.0000              
dE/dt               10.000              
dE/dt unit          mV/s                
Ei (V)              -1.000              
vs.                 Ref                 
EL (V)              0.100               
vs.                 Ref                 
record              <I>                 
dI                  0.000               
unit dI             µA                  
tI (s)              0.1000              
step percent        100                 
N                   100                 
E range min (V)     -1.100              
E range max (V)     0.200               
I Range             Auto                
I Range min         Unset               
I Range max         Unset               
I Range init        Unset               
Bandwidth           5                   

mode	ox/red	error	control changes	time/s	control/V	Ewe/V	<I>/mA	P/W
2	1	0	0	1.449999963369919E-001	-9.9912035E-001	-9.9931216E-001	-1.328596105575562E+000	1.3276823E-003
2	1	0	1	3.977999899507267E-001	-9.9659473E-001	-9.9667597E-001	-1.349773847055953E+000	1.3452872E-003
2	1	0	0	8.983999773045070E-001	-9.9158841E-001	-9.9167603E-001	-1.338921103380905E+000	1.3277760E-003
2	1	0	1	1.398999964658287E+000	-9.8658270E-001	-9.8668277E-001	-1.262458995934161E+000	1.2456465E-003
2	1	0	1	1.899799952007015E+000	-9.8157448E-001	-9.8167574E-001	-1.150361233775484E+000	1.1292817E-003
2	1	0	0	2.400399939360796E+000	-9.7656864E-001	-9.7666478E-001	-1.039385649125599E+000	1.0151314E-003
2	1	0	1	2.900999926714576E+000	-9.7156250E-001	-9.7163910E-001	-9.449761723301595E-001	9.1817579E-004
2	1	0	0	3.401599914068356E+000	-9.6655643E-001	-9.6664441E-001	-8.678065318434758E-001	8.3886035E-004
2	1	0	1	3.902199901422136E+000	-9.6155053E-001	-9.6162093E-001	-8.024098194725875E-001	7.7161408E-004
2	1	0	0	4.402799888775917E+000	-9.5654434E-001	-9.5660919E-001	-7.468193073101510E-001	7.1441423E-004
2	1	0	1	4.903399876129697E+000	-9.5153862E-001	-9.5161623E-001	-6.999151709978689E-001	6.6605065E-004
2	1	0	0	5.403999863483477E+000	-9.4653225E-001	-9.4663340E-001	-6.591907926797944E-001	6.2401203E-004
2	1	0	1	5.904699850834731E+000	-9.4152558E-001	-9.4161886E-001	-6.228797171153602E-001	5.8651529E-004
2	1	0	1	6.405399838185986E+000	-9.3651843E-001	-9.3660408E-001	-5.900282525890876E-001	5.5262289E-004
2	1	0	0	6.905999825539766E+000	-9.3151265E-001	-9.3160689E-001	-5.582908628912069E-001	5.2010763E-004
2	1	0	1	7.406599812893546E+000	-9.2650646E-001	-9.2661184E-001	-5.292504908955582E-001	4.9040979E-004
2	1	0	0	7.907199800247326E+000	-9.2150074E-001	-9.2158669E-001	-5.018005493285411E-001	4.6245271E-004
2	1	0	1	8.425299787159020E+000	-9.1631943E-001	-9.1638339E-001	-4.751655336076670E-001	4.3543379E-004
2	1	0	1	8.943399774070713E+000	-9.1113865E-001	-9.1119432E-001	-4.496098920190832E-001	4.0968199E-004
2	1	0	0	9.444099761421967E+000	-9.0613133E-001	-9.0619051E-001	-4.262642479357055E-001	3.8627663E-004
2	1	0	0	9.944799748773221E+000	-9.0112466E-001	-9.0117323E-001	-4.026968237415200E-001	3.6289959E-004
2	1	0	1	1.044539973612700E+001	-8.9611834E-001	-8.9616042E-001	-3.801861634150976E-001	3.4070780E-004
2	1	0	0	1.094599972348078E+001	-8.9111269E-001	-8.9116192E-001	-3.584119855787637E-001	3.1940310E-004
2	1	0	1	1.144659971083456E+001	-8.8610637E-001	-8.8614911E-001	-3.369070643058372E-001	2.9854989E-004
2	1	0	0	1.194719969818834E+001	-8.8110054E-001	-8.8112634E-001	-3.161028766904330E-001	2.7852657E-004
2	1	0	1	1.244779968554212E+001	-8.7609440E-001	-8.7614173E-001	-2.950455741773519E-001	2.5850174E-004
2	1	0	0	1.294839967289590E+001	-8.7108833E-001	-8.7114972E-001	-2.748338069878837E-001	2.3942140E-004
2	1	0	1	1.344899966024968E+001	-8.6608249E-001	-8.6614168E-001	-2.548463779987102E-001	2.2073307E-004
2	1	0	1	1.394979964759841E+001	-8.6107433E-001	-8.6113322E-001	-2.348035992306885E-001	2.0219717E-004
2	1	0	0	1.445039963495219E+001	-8.5606849E-001	-8.5612082E-001	-2.152087763177826E-001	1.8424471E-004
2	1	0	1	1.495099962230597E+001	-8.5106236E-001	-8.5112166E-001	-1.958420793737954E-001	1.6668544E-004
2	1	0	0	1.545159960965975E+001	-8.4605652E-001	-8.4611022E-001	-1.763851829233913E-001	1.4924131E-004
2	1	0	1	1.595219959701353E+001	-8.4105033E-001	-8.4109217E-001	-1.571134517582227E-001	1.3214689E-004
2	1	0	0	1.645279958436731E+001	-8.3604449E-001	-8.3609468E-001	-1.380331911588994E-001	1.1540882E-004
2	1	0	1	1.695339957172109E+001	-8.3103824E-001	-8.3111417E-001	-1.192392290200730E-001	9.9101417E-005
2	1	0	0	1.745399955907487E+001	-8.2603246E-001	-8.2609111E-001	-1.004121763670056E-001	8.2949606E-005
2	1	0	1	1.795469954642613E+001	-8.2102531E-001	-8.2109225E-001	-8.166616719422115E-002	6.7055458E-005
2	1	0	1	1.845539953377738E+001	-8.1601846E-001	-8.1607860E-001	-6.304317806825954E-002	5.1448187E-005
2	1	0	0	1.897349952068907E+001	-8.1083721E-001	-8.1089061E-001	-4.408077987012954E-002	3.5744692E-005
2	1	0	0	1.949159950760077E+001	-8.0565649E-001	-8.0569029E-001	-2.470456934782889E-002	1.9904232E-005
2	1	0	1	1.999219949495455E+001	-8.0065024E-001	-8.0068457E-001	-6.412524763533319E-003	5.1344095E-006
2	1	0	0	2.049279948230833E+001	-7.9564440E-001	-7.9568356E-001	1.147807592141416E-002	9.1329166E-006
2	1	0	1	2.099339946966211E+001	-7.9063827E-001	-7.9067630E-001	2.930324437382620E-002	2.3169381E-005
2	1	0	0	2.149409945701336E+001	-7.8563136E-001	-7.8565472E-001	4.738919756357290E-002	3.7231548E-005
2	1	0	0	2.199479944436462E+001	-7.8062433E-001	-7.8065443E-001	6.514446639137117E-002	5.0855317E-005
2	1	0	1	2.249539943171840E+001	-7.7561814E-001	-7.7564490E-001	8.323607147220824E-002	6.4561631E-005
2	1	0	0	2.301349941863009E+001	-7.7043724E-001	-7.7047694E-001	1.012249411231334E-001	7.7991484E-005
2	1	0	0	2.353159940554178E+001	-7.6525611E-001	-7.6529878E-001	1.190948222268040E-001	9.1143120E-005
2	1	0	1	2.403219939289556E+001	-7.6025021E-001	-7.6029259E-001	1.368665787930508E-001	1.0405864E-004
2	1	0	0	2.453279938024934E+001	-7.5524408E-001	-7.5526619E-001	1.544576031143565E-001	1.1665661E-004
2	1	0	1	2.503349936760060E+001	-7.5023735E-001	-7.5027126E-001	1.718218088226515E-001	1.2891297E-004
2	1	0	1	2.553419935495185E+001	-7.4523026E-001	-7.4525172E-001	1.881944847006984E-001	1.4025226E-004
2	1	0	0	2.603479934230563E+001	-7.4022436E-001	-7.4024385E-001	2.045788642214816E-001	1.5143825E-004
2	1	0	1	2.653539932965941E+001	-7.3521823E-001	-7.3524857E-001	2.218105013994969E-001	1.6308585E-004
2	1	0	0	2.703599931701319E+001	-7.3021245E-001	-7.3024583E-001	2.381114207846788E-001	1.7387987E-004
2	1	0	1	2.753659930436697E+001	-7.2520620E-001	-7.2523183E-001	2.537357962679714E-001	1.8401728E-004
2	1	0	0	2.803719929172075E+001	-7.2020030E-001	-7.2023803E-001	2.704880947196422E-001	1.9481582E-004
2	1	0	1	2.853779927907453E+001	-7.1519411E-001	-7.1523738E-001	2.865853165911298E-001	2.0497653E-004
2	1	0	0	2.903839926642831E+001	-7.1018827E-001	-7.1022701E-001	3.034470790977304E-001	2.1551631E-004
2	1	0	0	2.953919925377704E+001	-7.0518017E-001	-7.0521116E-001	3.192218808091303E-001	2.2511883E-004
2	1	0	1	3.003979924113082E+001	-7.0017427E-001	-7.0020783E-001	3.342683178802099E-001	2.3405730E-004
2	1	0	0	3.054039922848460E+001	-6.9516814E-001	-6.9519943E-001	3.485687412139109E-001	2.4232479E-004
2	1	0	1	3.104099921583838E+001	-6.9016218E-001	-6.9018966E-001	3.643330318131073E-001	2.5145890E-004
2	1	0	0	3.154159920319216E+001	-6.8515605E-001	-6.8517023E-001	3.798231678085751E-001	2.6024354E-004
2	1	0	1	3.204219919054594E+001	-6.8014997E-001	-6.8018246E-001	3.951672487645235E-001	2.6878584E-004
2	1	0	0	3.254279917789972E+001	-6.7514408E-001	-6.7517602E-001	4.089371042404126E-001	2.7610452E-004
2	1	0	1	3.304339916525350E+001	-6.7013788E-001	-6.7017895E-001	4.230308563422993E-001	2.8350638E-004
2	1	0	0	3.354399915260728E+001	-6.6513211E-001	-6.6517544E-001	4.380153741297053E-001	2.9135708E-004
2	1	0	0	3.404479913995601E+001	-6.6012406E-001	-6.6016376E-001	4.511265480604780E-001	2.9781740E-004
2	1	0	1	3.454539912730979E+001	-6.5511817E-001	-6.5517247E-001	4.655370306780906E-001	3.0500704E-004
2	1	0	0	3.504599911466357E+001	-6.5011209E-001	-6.5017092E-001	4.789634919781505E-001	3.1140813E-004
2	1	0	1	3.554659910201735E+001	-6.4510620E-001	-6.4515299E-001	4.918074787544091E-001	3.1729107E-004
2	1	0	0	3.604719908937113E+001	-6.4010006E-001	-6.4015478E-001	5.066092546037897E-001	3.2430835E-004
2	1	0	1	3.654779907672491E+001	-6.3509405E-001	-6.3516539E-001	5.201465484814911E-001	3.3037909E-004
2	1	0	0	3.704839906407869E+001	-6.3008797E-001	-6.3015819E-001	5.304636678878030E-001	3.3427603E-004
2	1	0	1	3.754899905143247E+001	-6.2508202E-001	-6.2514287E-001	5.428728547833446E-001	3.3937310E-004
2	1	0	0	3.804969903878373E+001	-6.2007493E-001	-6.2013626E-001	5.565330764205765E-001	3.4512635E-004
2	1	0	0	3.855039902613498E+001	-6.1506802E-001	-6.1513728E-001	5.684693879296692E-001	3.4968671E-004
2	1	0	1	3.905099901348876E+001	-6.1006194E-001	-6.1012757E-001	5.789485868102968E-001	3.5323249E-004
2	1	0	0	3.955159900084254E+001	-6.0505587E-001	-6.0511261E-001	5.914043486407472E-001	3.5786623E-004
2	1	0	1	4.005219898819632E+001	-6.0004979E-001	-6.0010833E-001	6.032895159684788E-001	3.6203905E-004
2	1	0	0	4.055279897555010E+001	-5.9504384E-001	-5.9511083E-001	6.126160353445549E-001	3.6457443E-004
2	1	0	1	4.105339896290388E+001	-5.9003782E-001	-5.9010029E-001	6.239843038331010E-001	3.6821331E-004
2	1	0	0	4.155399895025766E+001	-5.8503175E-001	-5.8509022E-001	6.367502936010156E-001	3.7255636E-004
2	1	0	1	4.205459893761144E+001	-5.8002585E-001	-5.8008772E-001	6.459044310807176E-001	3.7468123E-004
2	1	0	0	4.255529892496270E+001	-5.7501888E-001	-5.7509273E-001	6.560469569435732E-001	3.7728783E-004
2	1	0	0	4.305599891231395E+001	-5.7001191E-001	-5.7005715E-001	6.676551401127373E-001	3.8060159E-004
2	1	0	1	4.355659889966773E+001	-5.6500578E-001	-5.6506157E-001	6.758731353001419E-001	3.8190992E-004
2	1	0	0	4.405719888702151E+001	-5.5999982E-001	-5.6006771E-001	6.850411741173623E-001	3.8366945E-004
2	1	0	1	4.455779887437529E+001	-5.5499381E-001	-5.5506372E-001	6.948525469565361E-001	3.8568745E-004
2	1	0	0	4.505839886172907E+001	-5.4998779E-001	-5.5004001E-001	7.059244551339319E-001	3.8828669E-004
2	1	0	1	4.555899884908285E+001	-5.4498172E-001	-5.4502589E-001	7.157365619117542E-001	3.9009497E-004
2	1	0	0	4.605959883643663E+001	-5.3997576E-001	-5.4003346E-001	7.221846465799624E-001	3.9000387E-004
2	1	0	1	4.656019882379042E+001	-5.3496975E-001	-5.3503162E-001	7.297293564084038E-001	3.9042826E-004
2	1	0	0	4.706089881114167E+001	-5.2996272E-001	-5.3002638E-001	7.395355412746873E-001	3.9197336E-004
2	1	0	0	4.756159879849292E+001	-5.2495575E-001	-5.2501446E-001	7.472993647339568E-001	3.9234298E-004
2	1	0	1	4.806219878584670E+001	-5.1994967E-001	-5.2001518E-001	7.562884796310820E-001	3.9328149E-004
2	1	0	0	4.856279877320048E+001	-5.1494366E-001	-5.1501173E-001	7.650585350602146E-001	3.9401412E-004
2	1	0	1	4.906339876055426E+001	-5.0993764E-001	-5.0999498E-001	7.714941292314048E-001	3.9345815E-004
2	1	0	0	4.956399874790804E+001	-5.0493157E-001	-5.0497931E-001	7.769382398218543E-001	3.9233774E-004
2	1	0	1	5.006459873526182E+001	-4.9992555E-001	-4.9998081E-001	7.843247385761991E-001	3.9214731E-004
2	1	0	0	5.056519872261561E+001	-4.9491951E-001	-4.9497506E-001	7.926716982084479E-001	3.9235273E-004
2	1	0	1	5.106579870996939E+001	-4.8991346E-001	-4.8995361E-001	7.984437395898518E-001	3.9120039E-004
2	1	0	1	5.156659869731811E+001	-4.8490554E-001	-4.8495829E-001	8.074750596121927E-001	3.9159172E-004
2	1	0	0	5.206719868467189E+001	-4.7989962E-001	-4.7994047E-001	8.113594619528739E-001	3.8940425E-004
2	1	0	1	5.256779867202567E+001	-4.7489360E-001	-4.7493514E-001	8.183181677446072E-001	3.8864807E-004
2	1	0	0	5.306839865937945E+001	-4.6988761E-001	-4.6990699E-001	8.266739573073689E-001	3.8845986E-004
2	1	0	1	5.356899864673323E+001	-4.6488157E-001	-4.6492097E-001	8.327717135049673E-001	3.8717303E-004
2	1	0	0	5.406959863408701E+001	-4.5987558E-001	-4.5990792E-001	8.370658392518973E-001	3.8497322E-004
2	1	0	1	5.457019862144080E+001	-4.5486960E-001	-4.5489815E-001	8.434325806288054E-001	3.8367591E-004
2	1	0	0	5.507079860879458E+001	-4.4986364E-001	-4.4989282E-001	8.485602080453321E-001	3.8176114E-004
2	1	0	1	5.557149859614583E+001	-4.4485655E-001	-4.4487363E-001	8.520425585793063E-001	3.7905126E-004
2	1	0	1	5.607219858349708E+001	-4.3984959E-001	-4.3988541E-001	8.570462394472820E-001	3.7700214E-004
2	1	0	0	5.657279857085086E+001	-4.3484360E-001	-4.3486467E-001	8.637314096372410E-001	3.7560627E-004
2	1	0	1	5.707339855820464E+001	-4.2983758E-001	-4.2985266E-001	8.689733052585513E-001	3.7353049E-004
2	1	0	0	5.757399854555842E+001	-4.2483151E-001	-4.2486823E-001	8.740039292648110E-001	3.7133650E-004
2	1	0	1	5.807459853291221E+001	-4.1982549E-001	-4.1987336E-001	8.800561936748039E-001	3.6951216E-004
2	1	0	0	5.857519852026599E+001	-4.1481942E-001	-4.1485319E-001	8.847787880719284E-001	3.6705329E-004
2	1	0	1	5.907579850761977E+001	-4.0981340E-001	-4.0983945E-001	8.878848482740738E-001	3.6389023E-004
2	1	0	0	5.957639849497355E+001	-4.0480742E-001	-4.0484878E-001	8.927127761161726E-001	3.6141369E-004
2	1	0	1	6.007709848232480E+001	-3.9980039E-001	-3.9984566E-001	8.967796907995904E-001	3.5857348E-004
2	1	0	1	6.057779846967605E+001	-3.9479345E-001	-3.9483336E-001	8.983879189982584E-001	3.5471353E-004
2	1	0	0	6.107839845702983E+001	-3.8978744E-001	-3.8982296E-001	9.041223965170815E-001	3.5244768E-004
2	1	0	1	6.157899844438361E+001	-3.8478145E-001	-3.8480395E-001	9.095282836940477E-001	3.4999006E-004
2	1	0	0	6.207959843173740E+001	-3.7977549E-001	-3.7980935E-001	9.113012462796233E-001	3.4612074E-004
2	1	0	1	6.258019841909118E+001	-3.7476948E-001	-3.7481123E-001	9.154250226004734E-001	3.4311158E-004
2	1	0	0	6.308079840644496E+001	-3.6976346E-001	-3.6980551E-001	9.213446843895277E-001	3.4071834E-004
2	1	0	1	6.358139839379874E+001	-3.6475745E-001	-3.6479548E-001	9.236236879563817E-001	3.3693374E-004
2	1	0	0	6.408199838115252E+001	-3.5975143E-001	-3.5980040E-001	9.250154160075645E-001	3.3282093E-004
2	1	0	0	6.458279836850124E+001	-3.5474345E-001	-3.5478747E-001	9.286182371003679E-001	3.2946211E-004
2	1	0	1	6.508339835585502E+001	-3.4973747E-001	-3.4977436E-001	9.317647199460117E-001	3.2590740E-004
2	1	0	0	6.558399834320880E+001	-3.4473145E-001	-3.4477225E-001	9.354870559765445E-001	3.2252999E-004
2	1	0	1	6.608459833056259E+001	-3.3972535E-001	-3.3975685E-001	9.386440036988457E-001	3.1891072E-004
2	1	0	0	6.658519831791637E+001	-3.3471936E-001	-3.3474451E-001	9.386165479802386E-001	3.1419675E-004
2	1	0	1	6.708579830527015E+001	-3.2971334E-001	-3.2972762E-001	9.438587702948595E-001	3.1121631E-004
2	1	0	0	6.758639829262393E+001	-3.2470733E-001	-3.2474387E-001	9.463635450553660E-001	3.0732577E-004
2	1	0	1	6.808699827997771E+001	-3.1970128E-001	-3.1974116E-001	9.475677588644895E-001	3.0297640E-004
2	1	0	0	6.858759826733149E+001	-3.1469524E-001	-3.1472695E-001	9.510864346695911E-001	2.9933252E-004
2	1	0	0	6.908839825468021E+001	-3.0968726E-001	-3.0973101E-001	9.548984113692089E-001	2.9576165E-004
2	1	0	1	6.958899824203399E+001	-3.0468124E-001	-3.0473441E-001	9.542229754939716E-001	2.9078458E-004
2	1	0	0	7.008959822938778E+001	-2.9967532E-001	-2.9971603E-001	9.553831221203724E-001	2.8634362E-004
2	1	0	1	7.059019821674156E+001	-2.9466924E-001	-2.9469964E-001	9.600777915681640E-001	2.8293458E-004
2	1	0	0	7.109079820409534E+001	-2.8966326E-001	-2.8969517E-001	9.662017811068591E-001	2.7990399E-004
2	1	0	1	7.159139819144912E+001	-2.8465727E-001	-2.8469330E-001	9.654761487391705E-001	2.7486458E-004
2	1	0	0	7.209199817880290E+001	-2.7965122E-001	-2.7968192E-001	9.655051851649528E-001	2.7003433E-004
2	1	0	1	7.259259816615668E+001	-2.7464518E-001	-2.7466342E-001	9.694046887179137E-001	2.6626000E-004
2	1	0	0	7.309329815350793E+001	-2.6963818E-001	-2.6965067E-001	9.710541398812778E-001	2.6184539E-004
2	1	0	0	7.359399814085918E+001	-2.6463118E-001	-2.6466477E-001	9.713823659858400E-001	2.5709069E-004
2	1	0	1	7.409459812821297E+001	-2.5962514E-001	-2.5965691E-001	9.727071812315788E-001	2.5257014E-004
2	1	0	0	7.459519811556675E+001	-2.5461918E-001	-2.5464636E-001	9.764168086816607E-001	2.4864098E-004
2	1	0	1	7.509579810292053E+001	-2.4961312E-001	-2.4965043E-001	9.777055079995964E-001	2.4408460E-004
2	1	0	0	7.559639809027431E+001	-2.4460712E-001	-2.4466524E-001	9.780847028609791E-001	2.3930332E-004
2	1	0	1	7.609699807762809E+001	-2.3960114E-001	-2.3966046E-001	9.818915593987132E-001	2.3532058E-004
2	1	0	0	7.659759806498187E+001	-2.3459511E-001	-2.3464656E-001	9.840261962298755E-001	2.3089837E-004
2	1	0	1	7.709819805233565E+001	-2.2958909E-001	-2.2966057E-001	9.835321370005143E-001	2.2587855E-004
2	1	0	0	7.759889803968690E+001	-2.2458214E-001	-2.2463922E-001	9.846928142892561E-001	2.2120062E-004
2	1	0	0	7.809959802703816E+001	-2.1957511E-001	-2.1962878E-001	9.883098109997492E-001	2.1706129E-004
2	1	0	1	7.860019801439194E+001	-2.1456912E-001	-2.1462241E-001	9.869883958589760E-001	2.1182983E-004
2	1	0	0	7.910079800174572E+001	-2.0956311E-001	-2.0962870E-001	9.889511098527652E-001	2.0731254E-004
2	1	0	1	7.960139798909950E+001	-2.0455706E-001	-2.0461911E-001	9.921097261481000E-001	2.0300460E-004
2	1	0	0	8.010199797645328E+001	-1.9955106E-001	-1.9960941E-001	9.908440192975299E-001	1.9778179E-004
2	1	0	1	8.060259796380706E+001	-1.9454502E-001	-1.9462165E-001	9.895139039354106E-001	1.9258083E-004
2	1	0	0	8.110319795116084E+001	-1.8953902E-001	-1.8959786E-001	9.930370743032206E-001	1.8827770E-004
2	1	0	1	8.160379793851462E+001	-1.8453301E-001	-1.8459226E-001	9.945381506349946E-001	1.8358405E-004
2	1	0	1	8.210459792586335E+001	-1.7952508E-001	-1.7957540E-001	9.947394523214808E-001	1.7863074E-004
2	1	0	0	8.260519791321713E+001	-1.7451905E-001	-1.7457107E-001	9.967798053254282E-001	1.7400892E-004
2	1	0	1	8.310579790057091E+001	-1.6951305E-001	-1.6956073E-001	9.992100885712674E-001	1.6942680E-004
2	1	0	0	8.360639788792469E+001	-1.6450705E-001	-1.6453911E-001	9.976041682940675E-001	1.6414491E-004
2	1	0	1	8.410699787527847E+001	-1.5950100E-001	-1.5953468E-001	9.997180499560585E-001	1.5948970E-004
2	1	0	0	8.460759786263225E+001	-1.5449497E-001	-1.5454042E-001	1.002119904382116E+000	1.5486803E-004
2	1	0	1	8.510819784998603E+001	-1.4948894E-001	-1.4952740E-001	9.999746988567271E-001	1.4952362E-004
2	1	0	0	8.560879783733981E+001	-1.4448291E-001	-1.4451179E-001	1.003146894344810E+000	1.4496656E-004
2	1	0	1	8.610949782469106E+001	-1.3947591E-001	-1.3950558E-001	1.002549167142254E+000	1.3986121E-004
2	1	0	1	8.661019781204232E+001	-1.3446896E-001	-1.3448705E-001	1.001145453209420E+000	1.3464110E-004
2	1	0	0	8.711079779939610E+001	-1.2946291E-001	-1.2949158E-001	1.004548340304494E+000	1.3008056E-004
2	1	0	1	8.761139778674988E+001	-1.2445689E-001	-1.2448009E-001	1.005492677053253E+000	1.2516382E-004
2	1	0	0	8.811199777410366E+001	-1.1945086E-001	-1.1945707E-001	1.006026508256427E+000	1.2017698E-004
2	1	0	1	8.861259776145744E+001	-1.1444487E-001	-1.1445245E-001	1.008461360738282E+000	1.1542087E-004
2	1	0	0	8.911319774881122E+001	-1.0943886E-001	-1.0946239E-001	1.006142988375152E+000	1.1013482E-004
2	1	0	1	8.961379773616500E+001	-1.0443286E-001	-1.0445403E-001	1.006386861453377E+000	1.0512117E-004
2	1	0	0	9.011439772351878E+001	-9.9426828E-002	-9.9442557E-002	1.007949461330369E+000	1.0023307E-004
2	1	0	1	9.061509771087003E+001	-9.4419837E-002	-9.4438754E-002	1.009703869146811E+000	9.5355179E-005
2	1	0	1	9.111579769822129E+001	-8.9412838E-002	-8.9434944E-002	1.010092400179683E+000	9.0337555E-005
2	1	0	0	9.161639768557507E+001	-8.4406838E-002	-8.4432028E-002	1.009482775149738E+000	8.5232678E-005
2	1	0	1	9.211699767292885E+001	-7.9400845E-002	-7.9416238E-002	1.009841799524860E+000	8.0197839E-005
2	1	0	0	9.261759766028263E+001	-7.4394770E-002	-7.4408978E-002	1.011977871158741E+000	7.5300239E-005
2	1	0	1	9.311819764763641E+001	-6.9388784E-002	-6.9406636E-002	1.010839954704130E+000	7.0159003E-005
2	1	0	0	9.361879763499019E+001	-6.4382784E-002	-6.4408071E-002	1.013071890866809E+000	6.5250009E-005
2	1	0	1	9.411939762234397E+001	-5.9376758E-002	-5.9392653E-002	1.014218148516917E+000	6.0237107E-005
2	1	0	0	9.461999760969775E+001	-5.4370731E-002	-5.4389961E-002	1.014276657632074E+000	5.5166467E-005
2	1	0	1	9.512069759704900E+001	-4.9363758E-002	-4.9379375E-002	1.011182840867235E+000	4.9931576E-005
2	1	0	1	9.562139758440026E+001	-4.4356741E-002	-4.4393435E-002	1.012424154640740E+000	4.4944987E-005
2	1	0	0	9.612199757175404E+001	-3.9350741E-002	-3.9371539E-002	1.016559724254761E+000	4.0023522E-005
2	1	0	1	9.662259755910782E+001	-3.4344736E-002	-3.4365591E-002	1.015043814500320E+000	3.4882582E-005
2	1	0	0	9.712319754646160E+001	-2.9338736E-002	-2.9355597E-002	1.016494011293341E+000	2.9839788E-005
2	1	0	1	9.762379753381538E+001	-2.4332685E-002	-2.4344603E-002	1.015310873965998E+000	2.4717339E-005
2	1	0	0	9.812439752116916E+001	-1.9326689E-002	-1.9338204E-002	1.014657508294127E+000	1.9621653E-005
2	1	0	1	9.864259750807832E+001	-1.4144672E-002	-1.4172891E-002	1.017093247165018E+000	1.4415152E-005
2	1	0	0	9.916079749498749E+001	-8.9626806E-003	-9.0355789E-003	1.019231875808789E+000	9.2093496E-006
2	1	0	1	9.966139748234127E+001	-3.9566825E-003	-4.0322030E-003	1.017617909159657E+000	4.1032422E-006
2	1	0	0	1.001619974696951E+002	1.0493118E-003	9.8446233E-004	1.016858079750717E+000	1.0010584E-006
2	1	0	1	1.006625974570488E+002	6.0553285E-003	5.9784073E-003	1.020680389815258E+000	6.1020432E-006
2	1	0	0	1.011631974444026E+002	1.1061323E-002	1.0978411E-002	1.021080946249695E+000	1.1209846E-005
2	1	0	1	1.016637974317564E+002	1.6067320E-002	1.5990788E-002	1.020006317981634E+000	1.6310705E-005
2	1	0	0	1.021643974191102E+002	2.1073332E-002	2.1004014E-002	1.020349250712740E+000	2.1431430E-005
2	1	0	1	1.026650974064614E+002	2.6080299E-002	2.6017839E-002	1.023354326687112E+000	2.6625468E-005
2	1	0	1	1.031657973938127E+002	3.1087231E-002	3.1020451E-002	1.021497481815831E+000	3.1687312E-005
2	1	0	0	1.036663973811665E+002	3.6093242E-002	3.6039434E-002	1.021719910301339E+000	3.6822206E-005
2	1	0	1	1.041669973685202E+002	4.1099235E-002	4.1045636E-002	1.019411459384563E+000	4.1842392E-005
2	1	0	0	1.046675973558740E+002	4.6105243E-002	4.6048254E-002	1.021882889766069E+000	4.7055924E-005
2	1	0	1	1.051681973432278E+002	5.1111247E-002	5.1052410E-002	1.022809342055307E+000	5.2216881E-005
2	1	0	0	1.056687973305816E+002	5.6117218E-002	5.6056570E-002	1.020915084854163E+000	5.7228997E-005
2	1	0	1	1.061693973179354E+002	6.1123207E-002	6.1066344E-002	1.021048323615201E+000	6.2351690E-005
2	1	0	0	1.066699973052891E+002	6.6129215E-002	6.6078059E-002	1.024873246223505E+000	6.7721638E-005
2	1	0	1	1.071706972926404E+002	7.1136162E-002	7.1074001E-002	1.023362565166437E+000	7.2734474E-005
2	1	0	1	1.076713972799917E+002	7.6143160E-002	7.6095514E-002	1.021912159285204E+000	7.7762932E-005
2	1	0	0	1.081719972673454E+002	8.1149146E-002	8.1086062E-002	1.024039347010408E+000	8.3035316E-005
2	1	0	1	1.086725972546992E+002	8.6155176E-002	8.6109996E-002	1.023010578909506E+000	8.8091438E-005
2	1	0	0	1.091731972420530E+002	9.1161154E-002	9.1112405E-002	1.024831450291440E+000	9.3374860E-005
2	1	0	1	1.096737972294068E+002	9.6167140E-002	9.6119650E-002	1.024059386660348E+000	9.8432232E-005
2	1	0	0	1.099891972214391E+002	9.9321254E-002	9.9283949E-002	1.022821980816442E+000	1.0154981E-004
2	1	0	0	1.100545972197870E+002	9.9997252E-002	9.9975102E-002	1.018289174352372E+000	1.0180356E-004