EC-Lab ASCII FILE
Nb header lines : 55                          

I-V Characterization

Run on channel : 1 (SN 6514)
User : 
CE vs. WE compliance from -10 V to 10 V
Electrode connection : standard
Ewe ctrl range : min = -1.10 V, max = 0.20 V
Safety Limits :
	Do not start on E overload
Acquisition started on : 06/15/2016 17:20:30
Saved on :
	File : B125-G54-UN-G-D1GB-C1 FW 100mVs dark_C01.mpr
	Directory : E:\EC-Lab measurements\B125-G54-UN-G-D1GB\settings\
	Host : 10.0.2.15
Device : VSP (SN 0295)
Address : USB
EC-Lab for windows v11.01 (software)
Internet server v11.00 (firmware)
Command interpretor v11.00 (firmware)
Electrode material : 
Initial state : 
Electrolyte : 
Comments : 
Electrode surface area : 0.001 cm²
Characteristic mass : 0.001 g
Equivalent Weight : 0.000 g/eq.
Density : 0.000 g/cm3
tR (h:m:s)          0:00:0.0000         
dER/dt (mV/h)       0.0                 
dER (mV)            0                   
dtR (s)             0.0000              
dE/dt               100.000             
dE/dt unit          mV/s                
Ei (V)              0.100               
vs.                 Ref                 
EL (V)              -1.000              
vs.                 Ref                 
record              <I>                 
dI                  0.000               
unit dI             µA                  
tI (s)              0.1000              
step percent        100                 
N                   100                 
E range min (V)     -1.100              
E range max (V)     0.200               
I Range             Auto                
I Range min         Unset               
I Range max         Unset               
I Range init        Unset               
Bandwidth           5                   

mode	ox/red	error	control changes	time/s	control/V	Ewe/V	<I>/mA	P/W
2	0	0	1	8.039999796892516E-002	9.6991479E-002	9.6900731E-002	1.178409496787936E-003	1.1418874E-007
2	0	0	0	1.057999973272672E-001	9.4453171E-002	9.4420306E-002	1.011860233054409E-003	9.5540152E-008
2	0	0	0	1.710999956776504E-001	8.7926917E-002	8.7900996E-002	7.418111245617283E-004	6.5205938E-008
2	0	0	1	2.363999940280337E-001	8.1396692E-002	8.1358671E-002	5.587475769096052E-004	4.5458961E-008
2	0	0	1	2.863999927649274E-001	7.6394849E-002	7.6353930E-002	4.458681576140319E-004	3.4043786E-008
2	0	0	0	3.364999914992950E-001	7.1384162E-002	7.1349367E-002	3.515754960315556E-004	2.5084690E-008
2	0	0	0	3.865999902336625E-001	6.6376477E-002	6.6348173E-002	2.719787258533180E-004	1.8045291E-008
2	0	0	0	4.365999889705563E-001	6.1374214E-002	6.1333433E-002	2.040774732085262E-004	1.2516772E-008
2	0	0	1	4.866999877049238E-001	5.6365322E-002	5.6328144E-002	1.466022971283961E-004	8.2578353E-009
2	0	0	1	5.367999864392914E-001	5.1355850E-002	5.1316764E-002	9.664419962778989E-005	4.9594675E-009
2	0	0	1	5.867999851761851E-001	4.6353579E-002	4.6313878E-002	5.427559373652078E-005	2.5137132E-009
2	0	0	0	6.368999839105527E-001	4.1346494E-002	4.1300509E-002	1.806313643330624E-005	7.4601675E-010
2	0	0	0	6.869999826449202E-001	3.6335170E-002	3.6294106E-002	-1.352996715187658E-005	4.9105808E-010
2	0	0	0	7.369999813818140E-001	3.1333942E-002	3.1291518E-002	-4.047020761339890E-005	1.2663742E-009
2	0	0	0	7.869999801187078E-001	2.6336743E-002	2.6289675E-002	-6.405739175835261E-005	1.6840480E-009
2	0	0	1	8.371999788505491E-001	2.1314520E-002	2.1269925E-002	-8.457659708913079E-005	1.7989379E-009
2	0	0	1	8.871999775874428E-001	1.6315110E-002	1.6260991E-002	-1.017838030720809E-004	1.6551055E-009
2	0	0	1	9.371999763243366E-001	1.1316097E-002	1.1260456E-002	-1.173866910781939E-004	1.3218278E-009
2	0	0	0	9.873999750561779E-001	6.2938742E-003	6.2418580E-003	-1.312763223984463E-004	8.1940815E-010
2	0	0	0	1.037399973793072E+000	1.2962777E-003	1.2305802E-003	-1.426328242966492E-004	1.7552113E-010
2	0	0	0	1.087399972529965E+000	-3.7045612E-003	-3.7494849E-003	-1.536039606933194E-004	5.7593574E-010
2	0	0	1	1.137499971264333E+000	-8.7163094E-003	-8.7772598E-003	-1.633434073916185E-004	1.4337075E-009
2	0	0	1	1.187599969998701E+000	-1.3723013E-002	-1.3776401E-002	-1.714008036078950E-004	2.3612863E-009
2	0	0	1	1.237599968735594E+000	-1.8725477E-002	-1.8759592E-002	-1.789992161241186E-004	3.3579521E-009
2	0	0	0	1.287699967469962E+000	-2.3735208E-002	-2.3768732E-002	-1.859904256145879E-004	4.4207566E-009
2	0	0	0	1.337799966204329E+000	-2.8743936E-002	-2.8784432E-002	-1.920291131674607E-004	5.5274487E-009
2	0	0	0	1.387799964941223E+000	-3.3746179E-002	-3.3782683E-002	-1.973759589366797E-004	6.6678894E-009
2	0	0	1	1.437899963675591E+000	-3.8754102E-002	-3.8794033E-002	-2.028374673467802E-004	7.8688833E-009
2	0	0	1	1.487999962409958E+000	-4.3764416E-002	-4.3810099E-002	-2.073026768898735E-004	9.0819512E-009
2	0	0	1	1.537999961146852E+000	-4.8766695E-002	-4.8810739E-002	-2.112564457018027E-004	1.0311584E-008
2	0	0	0	1.588099959881220E+000	-5.3773031E-002	-5.3806111E-002	-2.158683862327187E-004	1.1615039E-008
2	0	0	0	1.638199958615587E+000	-5.8785185E-002	-5.8815807E-002	-2.195120699683994E-004	1.2910780E-008
2	0	0	0	1.688199957352481E+000	-6.3785598E-002	-6.3828990E-002	-2.223912094228269E-004	1.4195006E-008
2	0	0	0	1.738199956089375E+000	-6.8783626E-002	-6.8805955E-002	-2.259493913644867E-004	1.5546664E-008
2	0	0	1	1.788399954821216E+000	-7.3806100E-002	-7.3828913E-002	-2.291627809031223E-004	1.6918840E-008
2	0	0	1	1.838399953558110E+000	-7.8804485E-002	-7.8836255E-002	-2.317576982721007E-004	1.8270908E-008
2	0	0	1	1.888399952295003E+000	-8.3804496E-002	-8.3847620E-002	-2.348911868045650E-004	1.9695067E-008
2	0	0	0	1.938599951026845E+000	-8.8826589E-002	-8.8858321E-002	-2.376003288002064E-004	2.1112767E-008
2	0	0	0	1.988599949763739E+000	-9.3823366E-002	-9.3848169E-002	-2.399019797528074E-004	2.2514362E-008
2	0	0	0	2.038599948500632E+000	-9.8825030E-002	-9.8861784E-002	-2.425968213145453E-004	2.3983555E-008
2	0	0	1	2.088699947235000E+000	-1.0383597E-001	-1.0386647E-001	-2.448659009890095E-004	2.5433355E-008
2	0	0	1	2.138799945969367E+000	-1.0884367E-001	-1.0888945E-001	-2.472053109640010E-004	2.6918050E-008
2	0	0	1	2.188799944706261E+000	-1.1384600E-001	-1.1388108E-001	-2.496327733032982E-004	2.8428451E-008
2	0	0	0	2.238899943440629E+000	-1.1885493E-001	-1.1886702E-001	-2.516818263283314E-004	2.9916666E-008
2	0	0	0	2.288999942174996E+000	-1.2386442E-001	-1.2389677E-001	-2.541684577797082E-004	3.1490650E-008
2	0	0	0	2.338999940911890E+000	-1.2886673E-001	-1.2889545E-001	-2.563917884197621E-004	3.3047733E-008
2	0	0	1	2.389099939646258E+000	-1.3387370E-001	-1.3390091E-001	-2.582599966394314E-004	3.4581248E-008
2	0	0	1	2.439199938380625E+000	-1.3888496E-001	-1.3892341E-001	-2.604961638744766E-004	3.6189014E-008
2	0	0	1	2.489199937117519E+000	-1.4388645E-001	-1.4394037E-001	-2.630223454204020E-004	3.7859536E-008
2	0	0	1	2.539199935854413E+000	-1.4888355E-001	-1.4894047E-001	-2.649709138738132E-004	3.9464894E-008
2	0	0	0	2.589399934586254E+000	-1.5390575E-001	-1.5394111E-001	-2.671748782138786E-004	4.1129198E-008
2	0	0	0	2.639399933323148E+000	-1.5890530E-001	-1.5897034E-001	-2.696539215801441E-004	4.2866976E-008
2	0	0	0	2.689399932060041E+000	-1.6390429E-001	-1.6396263E-001	-2.715970657315922E-004	4.4531770E-008
2	0	0	1	2.739599930791883E+000	-1.6892657E-001	-1.6898222E-001	-2.738143627028069E-004	4.6269761E-008
2	0	0	1	2.789599929528777E+000	-1.7392409E-001	-1.7399101E-001	-2.763027528547490E-004	4.8074195E-008
2	0	0	1	2.839599928265670E+000	-1.7892490E-001	-1.7898683E-001	-2.785608207862488E-004	4.9858720E-008
2	0	0	0	2.889699927000038E+000	-1.8393691E-001	-1.8400316E-001	-2.808716126239566E-004	5.1681265E-008
2	0	0	0	2.939799925734405E+000	-1.8894354E-001	-1.8900964E-001	-2.835779502873737E-004	5.3598967E-008
2	0	0	0	2.989799924471299E+000	-1.9394565E-001	-1.9401479E-001	-2.860970536776434E-004	5.5507059E-008
2	0	0	1	3.039899923205667E+000	-1.9895576E-001	-1.9902267E-001	-2.883908963387275E-004	5.7396324E-008
2	0	0	1	3.089999921940034E+000	-2.0396408E-001	-2.0403278E-001	-2.911254632259270E-004	5.9399138E-008
2	0	0	1	3.139999920676928E+000	-2.0896648E-001	-2.0906174E-001	-2.940657182123516E-004	6.1477891E-008
2	0	0	0	3.190099919411296E+000	-2.1397449E-001	-2.1405125E-001	-2.962484140485298E-004	6.3412344E-008
2	0	0	0	3.240199918145663E+000	-2.1898483E-001	-2.1905856E-001	-2.990405478210137E-004	6.5507393E-008
2	0	0	0	3.290199916882557E+000	-2.2398728E-001	-2.2404703E-001	-3.023478120967463E-004	6.7740132E-008
2	0	0	1	3.340299915616924E+000	-2.2899359E-001	-2.2907406E-001	-3.049924343887069E-004	6.9865855E-008
2	0	0	1	3.390399914351292E+000	-2.3400544E-001	-2.3409204E-001	-3.090639675768054E-004	7.2349415E-008
2	0	0	1	3.440399913088186E+000	-2.3900618E-001	-2.3908743E-001	-3.122632818521372E-004	7.4658224E-008
2	0	0	1	3.490399911825079E+000	-2.4400388E-001	-2.4408324E-001	-3.152709066751441E-004	7.6952347E-008
2	0	0	0	3.540599910556921E+000	-2.4902627E-001	-2.4908040E-001	-3.188275654097622E-004	7.9413702E-008
2	0	0	0	3.590599909293815E+000	-2.5402492E-001	-2.5405869E-001	-3.224358776371637E-004	8.1917634E-008
2	0	0	0	3.640599908030708E+000	-2.5902480E-001	-2.5908312E-001	-3.262568027979518E-004	8.4527628E-008
2	0	0	1	3.690799906762550E+000	-2.6404703E-001	-2.6410413E-001	-3.304707475909590E-004	8.7278686E-008
2	0	0	1	3.740799905499443E+000	-2.6904401E-001	-2.6909354E-001	-3.347385349096298E-004	9.0075979E-008
2	0	0	1	3.790799904236337E+000	-2.7404532E-001	-2.7409425E-001	-3.391668621189423E-004	9.2963688E-008
2	0	0	0	3.840899902970705E+000	-2.7905658E-001	-2.7910376E-001	-3.439123156175005E-004	9.5987218E-008
2	0	0	0	3.890999901705072E+000	-2.8406373E-001	-2.8411788E-001	-3.488217907784159E-004	9.9106508E-008
2	0	0	0	3.940999900441966E+000	-2.8906611E-001	-2.8911906E-001	-3.543067222969640E-004	1.0243683E-007
2	0	0	1	3.991099899176334E+000	-2.9407531E-001	-2.9413062E-001	-3.598464000728625E-004	1.0584185E-007
2	0	0	1	4.041199897910701E+000	-2.9908466E-001	-2.9913837E-001	-3.665432991935644E-004	1.0964716E-007
2	0	0	1	4.091199896647595E+000	-3.0408680E-001	-3.0414858E-001	-3.727722760578536E-004	1.1337816E-007
2	0	0	0	4.141299895381962E+000	-3.0909437E-001	-3.0914602E-001	-3.787182260034795E-004	1.1707923E-007
2	0	0	0	4.191399894116330E+000	-3.1410521E-001	-3.1416216E-001	-3.860895958626084E-004	1.2129475E-007
2	0	0	0	4.241399892853224E+000	-3.1910694E-001	-3.1917557E-001	-3.931925636079230E-004	1.2549746E-007
2	0	0	0	4.291399891590117E+000	-3.2410359E-001	-3.2415968E-001	-4.012138517813510E-004	1.3005736E-007
2	0	0	1	4.341599890321959E+000	-3.2912600E-001	-3.2916299E-001	-4.093950250185560E-004	1.3475768E-007
2	0	0	1	4.391599889058853E+000	-3.3412579E-001	-3.3415771E-001	-4.182069689135701E-004	1.3974709E-007
2	0	0	1	4.441599887795746E+000	-3.3912471E-001	-3.3916327E-001	-4.279456583474407E-004	1.4514345E-007
2	0	0	0	4.491799886527588E+000	-3.4414673E-001	-3.4419149E-001	-4.384178294764422E-004	1.5089968E-007
2	0	0	0	4.541799885264481E+000	-3.4914479E-001	-3.4919512E-001	-4.492358249919594E-004	1.5687095E-007
2	0	0	0	4.591799884001375E+000	-3.5414514E-001	-3.5419643E-001	-4.606222418545042E-004	1.6315076E-007
2	0	0	1	4.641899882735743E+000	-3.5915738E-001	-3.5921550E-001	-4.731510253762261E-004	1.6996319E-007
2	0	0	1	4.691999881470110E+000	-3.6416358E-001	-3.6422235E-001	-4.857512947263765E-004	1.7692147E-007
2	0	0	1	4.741999880207004E+000	-3.6916593E-001	-3.6922470E-001	-5.000390863608068E-004	1.8462678E-007
2	0	0	0	4.792099878941372E+000	-3.7417623E-001	-3.7423003E-001	-5.151861706886084E-004	1.9279814E-007
2	0	0	0	4.842199877675739E+000	-3.7918463E-001	-3.7923929E-001	-5.311084157021582E-004	2.0141718E-007
2	0	0	0	4.892199876412633E+000	-3.8418663E-001	-3.8423768E-001	-5.483033745734200E-004	2.1067882E-007
2	0	0	1	4.942299875147000E+000	-3.8919520E-001	-3.8924721E-001	-5.665568856798387E-004	2.2053068E-007
2	0	0	1	4.992399873881368E+000	-3.9420500E-001	-3.9426661E-001	-5.866318371972132E-004	2.3128935E-007
2	0	0	1	5.042399872618262E+000	-3.9920744E-001	-3.9927408E-001	-6.080414292491919E-004	2.4277517E-007
2	0	0	0	5.092499871352629E+000	-4.0421382E-001	-4.0426448E-001	-6.306422870431287E-004	2.5494629E-007
2	0	0	0	5.142599870086997E+000	-4.0922579E-001	-4.0926719E-001	-6.554691305804537E-004	2.6826200E-007
2	0	0	0	5.192599868823891E+000	-4.1422656E-001	-4.1427907E-001	-6.821920620478580E-004	2.8261789E-007
2	0	0	0	5.242599867560784E+000	-4.1922459E-001	-4.1926849E-001	-7.110401343157907E-004	2.9811673E-007
2	0	0	1	5.292799866292626E+000	-4.2424646E-001	-4.2430130E-001	-7.420764469054410E-004	3.1486400E-007
2	0	0	1	5.342799865029519E+000	-4.2924559E-001	-4.2928815E-001	-7.745813435813612E-004	3.3251860E-007
2	0	0	1	5.392799863766413E+000	-4.3424484E-001	-4.3428913E-001	-8.097788071824701E-004	3.5167812E-007
2	0	0	0	5.442999862498255E+000	-4.3926719E-001	-4.3931893E-001	-8.480998504678504E-004	3.7258633E-007
2	0	0	0	5.492999861235148E+000	-4.4426429E-001	-4.4430375E-001	-8.880580491239637E-004	3.9456754E-007
2	0	0	0	5.542999859972042E+000	-4.4926569E-001	-4.4931307E-001	-9.320834370987498E-004	4.1879727E-007
2	0	0	1	5.593099858706410E+000	-4.5427686E-001	-4.5433399E-001	-9.801922090248959E-004	4.4533465E-007
2	0	0	1	5.643199857440777E+000	-4.5928442E-001	-4.5933035E-001	-1.030948453238823E-003	4.7354592E-007
2	0	0	1	5.693199856177671E+000	-4.6428639E-001	-4.6433321E-001	-1.085748893086013E-003	5.0414928E-007
2	0	0	0	5.743299854912038E+000	-4.6929601E-001	-4.6934873E-001	-1.144409660558260E-003	5.3712722E-007
2	0	0	0	5.793399853646406E+000	-4.7430468E-001	-4.7434893E-001	-1.207430128957725E-003	5.7274320E-007
2	0	0	0	5.843399852383300E+000	-4.7930700E-001	-4.7934988E-001	-1.275322164329474E-003	6.1132550E-007
2	0	0	1	5.893499851117667E+000	-4.8431474E-001	-4.8438466E-001	-1.348050727232222E-003	6.5297507E-007
2	0	0	1	5.943599849852035E+000	-4.8932561E-001	-4.8940074E-001	-1.426112830872776E-003	6.9794066E-007
2	0	0	1	5.993599848588929E+000	-4.9432722E-001	-4.9439511E-001	-1.508214246124177E-003	7.4565372E-007
2	0	0	1	6.043599847325822E+000	-4.9932432E-001	-4.9939588E-001	-1.598910520494528E-003	7.9848934E-007
2	0	0	0	6.093799846057664E+000	-5.0434655E-001	-5.0441599E-001	-1.695910770099660E-003	8.5544451E-007
2	0	0	0	6.143799844794557E+000	-5.0934631E-001	-5.0941914E-001	-1.799095026942019E-003	9.1649343E-007
2	0	0	0	6.193799843531451E+000	-5.1434475E-001	-5.1441538E-001	-1.910785506973108E-003	9.8293742E-007
2	0	0	1	6.243999842263293E+000	-5.1936704E-001	-5.1944822E-001	-2.029221293145799E-003	1.0540754E-006
2	0	0	1	6.293999841000186E+000	-5.2436513E-001	-5.2444285E-001	-2.155625936089763E-003	1.1305026E-006
2	0	0	1	6.343999839737080E+000	-5.2936560E-001	-5.2942282E-001	-2.291020007443129E-003	1.2129183E-006
2	0	0	0	6.394099838471448E+000	-5.3437763E-001	-5.3444892E-001	-2.436240638441584E-003	1.3020461E-006
2	0	0	0	6.444199837205815E+000	-5.3938437E-001	-5.3945166E-001	-2.591847676845244E-003	1.3981766E-006
2	0	0	0	6.494199835942709E+000	-5.4438639E-001	-5.4445612E-001	-2.757529901084806E-003	1.5013541E-006
2	0	0	1	6.544299834677076E+000	-5.4939663E-001	-5.4946655E-001	-2.934727371631640E-003	1.6125346E-006
2	0	0	1	6.594399833411444E+000	-5.5440468E-001	-5.5448794E-001	-3.124574073847683E-003	1.7325386E-006
2	0	0	1	6.644399832148338E+000	-5.5940694E-001	-5.5949211E-001	-3.325462199660859E-003	1.8605699E-006
2	0	0	0	6.694499830882705E+000	-5.6441540E-001	-5.6449634E-001	-3.540413354658246E-003	1.9985505E-006
2	0	0	0	6.744599829617073E+000	-5.6942576E-001	-5.6950319E-001	-3.767096308968168E-003	2.1453734E-006
2	0	0	0	6.794599828353967E+000	-5.7442766E-001	-5.7450247E-001	-4.010188758228263E-003	2.3038633E-006
2	0	0	1	6.844699827088334E+000	-5.7943451E-001	-5.7950073E-001	-4.268477627034244E-003	2.4735859E-006
2	0	0	1	6.894799825822702E+000	-5.8444625E-001	-5.8451605E-001	-4.541188046974443E-003	2.6543973E-006
2	0	0	1	6.944799824559595E+000	-5.8944690E-001	-5.8951539E-001	-4.832396370362813E-003	2.8487721E-006
2	0	0	1	6.994799823296489E+000	-5.9444463E-001	-5.9450793E-001	-5.141407891896460E-003	3.0566077E-006
2	0	0	0	7.044999822028331E+000	-5.9946680E-001	-5.9952801E-001	-5.468955633781934E-003	3.2787921E-006
2	0	0	0	7.094999820765224E+000	-6.0446572E-001	-6.0452372E-001	-5.815672596097221E-003	3.5157120E-006
2	0	0	0	7.144999819502118E+000	-6.0946560E-001	-6.0953176E-001	-6.182759079343327E-003	3.7685879E-006
2	0	0	1	7.195199818233959E+000	-6.1448759E-001	-6.1456257E-001	-6.571645557913397E-003	4.0386872E-006
2	0	0	1	7.245199816970853E+000	-6.1948484E-001	-6.1956203E-001	-6.982388859116839E-003	4.3260229E-006
2	0	0	1	7.295199815707747E+000	-6.2448603E-001	-6.2455791E-001	-7.413821577807816E-003	4.6303608E-006
2	0	0	0	7.345299814442114E+000	-6.2949711E-001	-6.2956470E-001	-7.869398249704018E-003	4.9542955E-006
2	0	0	0	7.395399813176482E+000	-6.3450450E-001	-6.3457727E-001	-8.348884853390734E-003	5.2980126E-006
2	0	0	0	7.445399811913376E+000	-6.3950670E-001	-6.3956273E-001	-8.852063818022546E-003	5.6614499E-006
2	0	0	1	7.495499810647743E+000	-6.4451599E-001	-6.4456278E-001	-9.385175079656607E-003	6.0493344E-006
2	0	0	1	7.545599809382111E+000	-6.4952546E-001	-6.4958495E-001	-9.943741847036336E-003	6.4593050E-006
2	0	0	1	7.610899807732494E+000	-6.5605837E-001	-6.5610397E-001	-1.071916633546750E-002	7.0328874E-006
2	0	0	0	7.676199806082877E+000	-6.6258770E-001	-6.6262001E-001	-1.154535500871767E-002	7.6501829E-006
2	0	0	1	7.726299804817245E+000	-6.6759491E-001	-6.6763413E-001	-1.221360366337487E-002	8.1542184E-006
2	0	0	1	7.776399803551612E+000	-6.7260593E-001	-6.7264771E-001	-1.290957742529837E-002	8.6835980E-006
2	0	0	1	7.826399802288506E+000	-6.7760760E-001	-6.7764342E-001	-1.363496309468511E-002	9.2396431E-006
2	0	0	1	7.876399801025400E+000	-6.8260443E-001	-6.8264103E-001	-1.439980922048797E-002	9.8299006E-006
2	0	0	0	7.926599799757241E+000	-6.8762684E-001	-6.8766010E-001	-1.520030069189482E-002	1.0452641E-005
2	0	0	0	7.976599798494135E+000	-6.9262701E-001	-6.9266033E-001	-1.603372441204215E-002	1.1105925E-005
2	0	0	0	8.026599797231029E+000	-6.9762516E-001	-6.9764960E-001	-1.689846657444630E-002	1.1789209E-005
2	0	0	1	8.076799795962870E+000	-7.0264757E-001	-7.0267844E-001	-1.780856271758935E-002	1.2513693E-005
2	0	0	1	8.126799794699764E+000	-7.0764542E-001	-7.0768827E-001	-1.875232167272468E-002	1.3270798E-005
2	0	0	1	8.176799793436658E+000	-7.1264583E-001	-7.1268630E-001	-1.973177162353620E-002	1.4062563E-005
2	0	0	0	8.226999792168499E+000	-7.1766800E-001	-7.1769089E-001	-2.075379778104774E-002	1.4894811E-005
2	0	0	0	8.276999790905393E+000	-7.2266454E-001	-7.2267956E-001	-2.181369104019543E-002	1.5764308E-005
2	0	0	0	8.326999789642286E+000	-7.2766674E-001	-7.2770137E-001	-2.292129511624769E-002	1.6679858E-005
2	0	0	1	8.377099788376654E+000	-7.3267752E-001	-7.3269892E-001	-2.407303650838653E-002	1.7638287E-005
2	0	0	1	8.427199787111022E+000	-7.3768491E-001	-7.3770505E-001	-2.526276936505240E-002	1.8636472E-005
2	0	0	1	8.477199785847915E+000	-7.4268746E-001	-7.4271208E-001	-2.649116739795154E-002	1.9675310E-005
2	0	0	0	8.527299784582283E+000	-7.4769586E-001	-7.4772000E-001	-2.777148054881581E-002	2.0765292E-005
2	0	0	0	8.577399783316650E+000	-7.5270575E-001	-7.5274080E-001	-2.909370057001348E-002	2.1900016E-005
2	0	0	0	8.627399782053544E+000	-7.5770795E-001	-7.5773531E-001	-3.047063849413839E-002	2.3088678E-005
2	0	0	1	8.677499780787912E+000	-7.6271510E-001	-7.6275867E-001	-3.189152570606263E-002	2.4325538E-005
2	0	0	1	8.727599779522279E+000	-7.6772660E-001	-7.6776326E-001	-3.335768276861178E-002	2.5610803E-005
2	0	0	1	8.777599778259173E+000	-7.7272785E-001	-7.7276695E-001	-3.487388347621700E-002	2.6949385E-005
2	0	0	1	8.827599776996067E+000	-7.7772468E-001	-7.7776742E-001	-3.642784153224354E-002	2.8332388E-005
2	0	0	0	8.877799775727908E+000	-7.8274757E-001	-7.8278983E-001	-3.804515012518883E-002	2.9781357E-005
2	0	0	0	8.927799774464802E+000	-7.8774625E-001	-7.8779012E-001	-3.969927328128686E-002	3.1274696E-005
2	0	0	0	8.977799773201696E+000	-7.9274565E-001	-7.9278815E-001	-4.141855259358644E-002	3.2836138E-005
2	0	0	1	9.027999771933537E+000	-7.9776788E-001	-7.9782844E-001	-4.319173336478943E-002	3.4459594E-005
2	0	0	1	9.077999770670431E+000	-8.0276555E-001	-8.0279559E-001	-4.500083080496009E-002	3.6126468E-005
2	0	0	1	9.127999769407324E+000	-8.0776656E-001	-8.0782396E-001	-4.687362727953936E-002	3.7865640E-005
2	0	0	0	9.178099768141692E+000	-8.1277817E-001	-8.1283045E-001	-4.879279345918069E-002	3.9660270E-005
2	0	0	0	9.228199766876060E+000	-8.1778467E-001	-8.1783754E-001	-5.076529635058868E-002	4.1517764E-005
2	0	0	0	9.278199765612953E+000	-8.2278752E-001	-8.2285464E-001	-5.277626551191639E-002	4.3427193E-005
2	0	0	1	9.328299764347321E+000	-8.2779658E-001	-8.2785988E-001	-5.485924964095568E-002	4.5415771E-005
2	0	0	1	9.378399763081688E+000	-8.3280551E-001	-8.3287126E-001	-5.698985672406354E-002	4.7465215E-005
2	0	0	1	9.428399761818582E+000	-8.3780807E-001	-8.3785272E-001	-5.917220993039934E-002	4.9577597E-005
2	0	0	0	9.478499760552950E+000	-8.4281600E-001	-8.4286261E-001	-6.140359562392606E-002	5.1754796E-005
2	0	0	0	9.528599759287317E+000	-8.4782648E-001	-8.4788114E-001	-6.369324968189471E-002	5.4004304E-005
2	0	0	0	9.578599758024211E+000	-8.5282868E-001	-8.5289538E-001	-6.603564363154737E-002	5.6321496E-005
2	0	0	0	9.628599756761105E+000	-8.5782456E-001	-8.5788441E-001	-6.841604580001237E-002	5.8693058E-005
2	0	0	1	9.678799755492946E+000	-8.6284721E-001	-8.6291128E-001	-7.087419037319398E-002	6.1158142E-005
2	0	0	1	9.728799754229840E+000	-8.6784708E-001	-8.6790347E-001	-7.337596917353340E-002	6.3683256E-005
2	0	0	1	9.778799752966734E+000	-8.7284571E-001	-8.7289816E-001	-7.591775735086725E-002	6.6268469E-005
2	0	0	0	9.828999751698575E+000	-8.7786770E-001	-8.7790543E-001	-7.853011063863848E-002	6.8942012E-005
2	0	0	0	9.878999750435469E+000	-8.8286644E-001	-8.8289654E-001	-8.118408539862632E-002	7.1677146E-005
2	0	0	0	9.928999749172363E+000	-8.8786644E-001	-8.8789588E-001	-8.387529289017881E-002	7.4472526E-005
2	0	0	1	9.979199747904204E+000	-8.9288861E-001	-8.9292669E-001	-8.663507382211133E-002	7.7358767E-005
2	0	0	1	1.002919974664110E+001	-8.9788479E-001	-8.9792448E-001	-8.944360766980075E-002	8.0313606E-005
2	0	0	1	1.007919974537799E+001	-9.0288705E-001	-9.0293217E-001	-9.229545349483315E-002	8.3336534E-005
2	0	0	0	1.012929974411236E+001	-9.0789753E-001	-9.0793675E-001	-9.521208981426055E-002	8.6446555E-005
2	0	0	0	1.017939974284673E+001	-9.1290557E-001	-9.1295469E-001	-9.818435880155496E-002	8.9637870E-005
2	0	0	0	1.022939974158362E+001	-9.1790771E-001	-9.1793036E-001	-1.011929934744122E-001	9.2888120E-005
2	0	0	1	1.029479973993148E+001	-9.2444927E-001	-9.2447728E-001	-1.052415521263143E-001	9.7293421E-005
2	0	0	0	1.036009973828186E+001	-9.3097681E-001	-9.3102169E-001	-1.093566759292535E-001	1.0181344E-004
2	0	0	0	1.041019973701623E+001	-9.3598604E-001	-9.3603003E-001	-1.125534718716705E-001	1.0535343E-004
2	0	0	0	1.046019973575312E+001	-9.4098824E-001	-9.4103962E-001	-1.157997379677005E-001	1.0897214E-004
2	0	0	1	1.051029973448749E+001	-9.4599563E-001	-9.4604456E-001	-1.190807191288883E-001	1.1265567E-004
2	0	0	1	1.056039973322186E+001	-9.5100689E-001	-9.5104653E-001	-1.224208628483063E-001	1.1642794E-004
2	0	0	1	1.061039973195875E+001	-9.5600808E-001	-9.5602399E-001	-1.257913258634402E-001	1.2025952E-004
2	0	0	1	1.066039973069564E+001	-9.6100563E-001	-9.6102995E-001	-1.291689590718128E-001	1.2413524E-004
2	0	0	0	1.071059972942749E+001	-9.6602768E-001	-9.6605158E-001	-1.326871687334805E-001	1.2818266E-004
2	0	0	0	1.076059972816438E+001	-9.7102708E-001	-9.7107172E-001	-1.362034850905212E-001	1.3226335E-004
2	0	0	0	1.081059972690127E+001	-9.7602588E-001	-9.7607064E-001	-1.397802657417215E-001	1.3643541E-004
2	0	0	1	1.086079972563311E+001	-9.8104823E-001	-9.8108822E-001	-1.434181310377340E-001	1.4070584E-004
2	0	0	1	1.091079972437001E+001	-9.8604590E-001	-9.8608875E-001	-1.470706148982317E-001	1.4502468E-004
2	0	0	1	1.096079972310690E+001	-9.9104679E-001	-9.9108207E-001	-1.507823507806361E-001	1.4943768E-004
2	0	0	0	1.101089972184127E+001	-9.9605852E-001	-9.9608094E-001	-1.545646827479099E-001	1.5395893E-004
2	0	0	0	1.104299972103036E+001	-9.9926269E-001	-9.9929142E-001	-1.569842392397234E-001	1.5687301E-004
2	0	0	0	1.105019972084847E+001	-9.9998629E-001	-9.9992287E-001	-1.575501933693886E-001	1.5753804E-004