EC-Lab ASCII FILE
Nb header lines : 55                          

I-V Characterization

Run on channel : 1 (SN 6514)
User : 
CE vs. WE compliance from -10 V to 10 V
Electrode connection : standard
Ewe ctrl range : min = -1.10 V, max = 0.20 V
Safety Limits :
	Do not start on E overload
Acquisition started on : 06/15/2016 17:48:27
Saved on :
	File : B125-G54-UN-G-D1GB-C3 FW 10mVs dark_C01.mpr
	Directory : E:\EC-Lab measurements\B125-G54-UN-G-D1GB\
	Host : 10.0.2.15
Device : VSP (SN 0295)
Address : USB
EC-Lab for windows v11.01 (software)
Internet server v11.00 (firmware)
Command interpretor v11.00 (firmware)
Electrode material : 
Initial state : 
Electrolyte : 
Comments : 
Electrode surface area : 0.001 cm²
Characteristic mass : 0.001 g
Equivalent Weight : 0.000 g/eq.
Density : 0.000 g/cm3
tR (h:m:s)          0:00:0.0000         
dER/dt (mV/h)       0.0                 
dER (mV)            0                   
dtR (s)             0.0000              
dE/dt               10.000              
dE/dt unit          mV/s                
Ei (V)              0.100               
vs.                 Ref                 
EL (V)              -1.000              
vs.                 Ref                 
record              <I>                 
dI                  0.000               
unit dI             µA                  
tI (s)              0.1000              
step percent        100                 
N                   100                 
E range min (V)     -1.100              
E range max (V)     0.200               
I Range             Auto                
I Range min         Unset               
I Range max         Unset               
I Range init        Unset               
Bandwidth           5                   

mode	ox/red	error	control changes	time/s	control/V	Ewe/V	<I>/mA	P/W
2	0	0	0	8.499999785271939E-002	9.9709451E-002	9.9841222E-002	1.346387453377246E-003	1.3442497E-007
2	0	0	1	3.552999910243670E-001	9.7005665E-002	9.6988894E-002	7.306444680208746E-004	7.0864402E-008
2	0	0	1	8.733999779360602E-001	9.1824532E-002	9.1789521E-002	3.865871277589665E-004	3.5484646E-008
2	0	0	0	1.373999965289840E+000	8.6818554E-002	8.6790502E-002	3.041007600737937E-004	2.6393058E-008
2	0	0	1	1.874699952641095E+000	8.1811547E-002	8.1803165E-002	2.628693077245496E-004	2.1503542E-008
2	0	0	1	2.375399939992349E+000	7.6804653E-002	7.6783888E-002	2.330368105168596E-004	1.7893472E-008
2	0	0	0	2.875999927346129E+000	7.1798600E-002	7.1775772E-002	2.058842349992390E-004	1.4777500E-008
2	0	0	1	3.376599914699909E+000	6.6792652E-002	6.6764548E-002	1.842142337841106E-004	1.2298981E-008
2	0	0	0	3.877199902053690E+000	6.1786640E-002	6.1768193E-002	1.631710185059073E-004	1.0078779E-008
2	0	0	1	4.377799889407470E+000	5.6780647E-002	5.6763005E-002	1.437259950529673E-004	8.1583194E-009
2	0	0	0	4.878399876761250E+000	5.1774640E-002	5.1752776E-002	1.255343687907771E-004	6.4967520E-009
2	0	0	0	5.379199864109978E+000	4.6766713E-002	4.6723556E-002	1.079504647865119E-004	5.0438294E-009
2	0	0	1	5.879799851463758E+000	4.1760705E-002	4.1719049E-002	9.064684038925797E-005	3.7816998E-009
2	0	0	0	6.380399838817539E+000	3.6754712E-002	3.6719725E-002	7.467471971469154E-005	2.7420350E-009
2	0	0	1	6.880999826171319E+000	3.1748708E-002	3.1725142E-002	5.958651753259537E-005	1.8903907E-009
2	0	0	0	7.381599813525099E+000	2.6742702E-002	2.6712636E-002	4.499741859712340E-005	1.2019996E-009
2	0	0	1	7.882199800878880E+000	2.1736700E-002	2.1700153E-002	3.126659135925189E-005	6.7848982E-010
2	0	0	0	8.382899788230134E+000	1.6729787E-002	1.6705263E-002	1.742462774690983E-005	2.9108299E-010
2	0	0	0	8.883599775581388E+000	1.1722792E-002	1.1693473E-002	4.076026530534069E-006	4.7662905E-011
2	0	0	1	9.384199762935168E+000	6.7167906E-003	6.6640293E-003	-8.991895683901419E-006	5.9922255E-011
2	0	0	0	9.884799750288948E+000	1.7107876E-003	1.6783274E-003	-2.217104507495004E-005	3.7210273E-011
2	0	0	1	1.038539973764273E+001	-3.2952274E-003	-3.3539671E-003	-3.513510918149733E-005	1.1784200E-010
2	0	0	0	1.088599972499651E+001	-8.3012506E-003	-8.3428062E-003	-4.785819336419809E-005	3.9927164E-010
2	0	0	1	1.138669971234776E+001	-1.3308269E-002	-1.3338956E-002	-6.102739603515241E-005	8.1404178E-010
2	0	0	1	1.188739969969902E+001	-1.8315222E-002	-1.8326091E-002	-7.396545987380749E-005	1.3554977E-009
2	0	0	0	1.238799968705280E+001	-2.3321247E-002	-2.3343366E-002	-8.701143176345752E-005	2.0311397E-009
2	0	0	1	1.288859967440658E+001	-2.8327271E-002	-2.8348101E-002	-9.999771332383094E-005	2.8347453E-009
2	0	0	0	1.338919966176036E+001	-3.3333294E-002	-3.3353720E-002	-1.138669620703262E-004	3.7978869E-009
2	0	0	1	1.388979964911414E+001	-3.8339328E-002	-3.8354240E-002	-1.279394505695567E-004	4.9070206E-009
2	0	0	0	1.439049963646539E+001	-4.3346297E-002	-4.3371748E-002	-1.425055574452746E-004	6.1807151E-009
2	0	0	0	1.489119962381665E+001	-4.8353251E-002	-4.8393305E-002	-1.567389145565130E-004	7.5851139E-009
2	0	0	1	1.539179961117043E+001	-5.3359274E-002	-5.3383023E-002	-1.718627232335872E-004	9.1745518E-009
2	0	0	0	1.589239959852421E+001	-5.8365300E-002	-5.8381971E-002	-1.882116161641323E-004	1.0988165E-008
2	0	0	1	1.639299958587799E+001	-6.3371316E-002	-6.3412845E-002	-2.050746362861015E-004	1.3004366E-008
2	0	0	0	1.689359957323177E+001	-6.8377353E-002	-6.8399884E-002	-2.215174879768829E-004	1.5151770E-008
2	0	0	1	1.739419956058555E+001	-7.3383383E-002	-7.3403969E-002	-2.388925026896786E-004	1.7535658E-008
2	0	0	1	1.789499954793428E+001	-7.8391314E-002	-7.8410141E-002	-2.570257175901368E-004	2.0153422E-008
2	0	0	0	1.839559953528806E+001	-8.3397329E-002	-8.3441049E-002	-2.807328609550526E-004	2.3424644E-008
2	0	0	1	1.889619952264184E+001	-8.8403352E-002	-8.8424489E-002	-3.025219133984732E-004	2.6750346E-008
2	0	0	0	1.939679950999562E+001	-9.3409389E-002	-9.3427725E-002	-3.268492161311821E-004	3.0536778E-008
2	0	0	1	1.989739949734940E+001	-9.8415427E-002	-9.8429516E-002	-3.403912703421061E-004	3.3504548E-008
2	0	0	0	2.039799948470318E+001	-1.0342145E-001	-1.0343824E-001	-3.618572791447110E-004	3.7429878E-008
2	0	0	1	2.089869947205443E+001	-1.0842843E-001	-1.0846286E-001	-3.859789366416257E-004	4.1864379E-008
2	0	0	1	2.139939945940569E+001	-1.1343540E-001	-1.1345523E-001	-4.127833748775920E-004	4.6832433E-008
2	0	0	0	2.189999944675947E+001	-1.1844140E-001	-1.1846057E-001	-4.379027754334453E-004	5.1874213E-008
2	0	0	1	2.240059943411325E+001	-1.2344743E-001	-1.2347265E-001	-4.652561978443354E-004	5.7446417E-008
2	0	0	0	2.290119942146703E+001	-1.2845346E-001	-1.2845854E-001	-4.943123698077923E-004	6.3498646E-008
2	0	0	1	2.340179940882081E+001	-1.3345949E-001	-1.3347661E-001	-5.254522561887236E-004	7.0135592E-008
2	0	0	0	2.390249939617206E+001	-1.3846651E-001	-1.3848332E-001	-5.605128713470310E-004	7.7621678E-008
2	0	0	0	2.440319938352332E+001	-1.4347346E-001	-1.4350758E-001	-5.918473393954080E-004	8.4934584E-008
2	0	0	1	2.490379937087710E+001	-1.4847949E-001	-1.4851567E-001	-6.240345678051691E-004	9.2678910E-008
2	0	0	0	2.540439935823088E+001	-1.5348549E-001	-1.5350892E-001	-6.623502754090744E-004	1.0167668E-007
2	0	0	1	2.590499934558466E+001	-1.5849157E-001	-1.5852714E-001	-7.009402872842074E-004	1.1111806E-007
2	0	0	0	2.640559933293844E+001	-1.6349754E-001	-1.6352631E-001	-7.409826881303386E-004	1.2117016E-007
2	0	0	1	2.690619932029222E+001	-1.6850358E-001	-1.6854332E-001	-7.820872148672983E-004	1.3181558E-007
2	0	0	1	2.740699930764094E+001	-1.7351153E-001	-1.7354566E-001	-8.216098177543131E-004	1.4258681E-007
2	0	0	0	2.790759929499472E+001	-1.7851754E-001	-1.7856884E-001	-8.658560746610759E-004	1.5461491E-007
2	0	0	1	2.840819928234851E+001	-1.8352358E-001	-1.8358123E-001	-9.138210832609055E-004	1.6776040E-007
2	0	0	0	2.890879926970229E+001	-1.8852957E-001	-1.8858798E-001	-9.626856766121587E-004	1.8155094E-007
2	0	0	1	2.940939925705607E+001	-1.9353561E-001	-1.9359669E-001	-1.016644848652734E-003	1.9681907E-007
2	0	0	0	2.990999924440985E+001	-1.9854161E-001	-1.9858918E-001	-1.068201349466998E-003	2.1213323E-007
2	0	0	1	3.041069923176110E+001	-2.0354863E-001	-2.0360661E-001	-1.124150319969222E-003	2.2888443E-007
2	0	0	1	3.091139921911235E+001	-2.0855559E-001	-2.0860806E-001	-1.180126935191379E-003	2.4618399E-007
2	0	0	0	3.141199920646613E+001	-2.1356164E-001	-2.1360908E-001	-1.240852010185228E-003	2.6505725E-007
2	0	0	1	3.191259919381991E+001	-2.1856768E-001	-2.1862760E-001	-1.301839047130660E-003	2.8461795E-007
2	0	0	0	3.241319918117370E+001	-2.2357361E-001	-2.2363453E-001	-1.378960143915874E-003	3.0838311E-007
2	0	0	1	3.291379916852748E+001	-2.2857969E-001	-2.2863482E-001	-1.444698046627124E-003	3.3030827E-007
2	0	0	0	3.341449915587873E+001	-2.3358665E-001	-2.3363893E-001	-1.504915904932749E-003	3.5160693E-007
2	0	0	0	3.391519914322998E+001	-2.3859362E-001	-2.3866765E-001	-1.576648583436957E-003	3.7629502E-007
2	0	0	1	3.441579913058376E+001	-2.4359968E-001	-2.4365972E-001	-1.654872118177594E-003	4.0322567E-007
2	0	0	0	3.491639911793754E+001	-2.4860564E-001	-2.4864653E-001	-1.723568524251958E-003	4.2855933E-007
2	0	0	1	3.541699910529132E+001	-2.5361171E-001	-2.5363809E-001	-1.795510105286717E-003	4.5540975E-007
2	0	0	0	3.591759909264511E+001	-2.5861773E-001	-2.5865525E-001	-1.873277842296604E-003	4.8453313E-007
2	0	0	1	3.641819907999889E+001	-2.6362377E-001	-2.6366547E-001	-1.965925049937260E-003	5.1834655E-007
2	0	0	1	3.691899906734761E+001	-2.6863173E-001	-2.6867017E-001	-2.054406733100415E-003	5.5195778E-007
2	0	0	0	3.741959905470139E+001	-2.7363771E-001	-2.7366772E-001	-2.134639698012336E-003	5.8418198E-007
2	0	0	1	3.792019904205517E+001	-2.7864376E-001	-2.7867952E-001	-2.231533471278427E-003	6.2188269E-007
2	0	0	0	3.842079902940895E+001	-2.8364977E-001	-2.8367576E-001	-2.329908758420911E-003	6.6093861E-007
2	0	0	1	3.892139901676273E+001	-2.8865582E-001	-2.8868121E-001	-2.428245828263245E-003	7.0098895E-007
2	0	0	0	3.942199900411651E+001	-2.9366183E-001	-2.9369238E-001	-2.526349206921210E-003	7.4196953E-007
2	0	0	1	3.992269899146777E+001	-2.9866874E-001	-2.9870909E-001	-2.625690114741876E-003	7.8431754E-007
2	0	0	1	4.042339897881902E+001	-3.0367583E-001	-3.0372402E-001	-2.729646431917764E-003	8.2905922E-007
2	0	0	0	4.092399896617280E+001	-3.0868191E-001	-3.0872035E-001	-2.849709485650760E-003	8.7976332E-007
2	0	0	1	4.142459895352658E+001	-3.1368786E-001	-3.1371143E-001	-2.965179996101184E-003	9.3021089E-007
2	0	0	0	4.192519894088036E+001	-3.1869382E-001	-3.1874028E-001	-3.074292056576073E-003	9.7990073E-007
2	0	0	1	4.242579892823414E+001	-3.2369986E-001	-3.2373384E-001	-3.205689485125132E-003	1.0377902E-006
2	0	0	0	4.292649891558540E+001	-3.2870689E-001	-3.2871786E-001	-3.336872592532347E-003	1.0968896E-006
2	0	0	0	4.342719890293665E+001	-3.3371392E-001	-3.3372426E-001	-3.467075842193572E-003	1.1570473E-006
2	0	0	1	4.392779889029043E+001	-3.3871984E-001	-3.3874878E-001	-3.601555312668994E-003	1.2200225E-006
2	0	0	0	4.442839887764421E+001	-3.4372586E-001	-3.4375057E-001	-3.747465592899620E-003	1.2881934E-006
2	0	0	1	4.492899886499799E+001	-3.4873196E-001	-3.4875813E-001	-3.883814416344321E-003	1.3545118E-006
2	0	0	0	4.542959885235177E+001	-3.5373798E-001	-3.5377011E-001	-4.026383261419693E-003	1.4244140E-006
2	0	0	1	4.593029883970303E+001	-3.5874501E-001	-3.5878089E-001	-4.184865009328520E-003	1.5014496E-006
2	0	0	1	4.643099882705428E+001	-3.6375189E-001	-3.6379099E-001	-4.346288033121773E-003	1.5811404E-006
2	0	0	0	4.693159881440806E+001	-3.6875790E-001	-3.6878926E-001	-4.501126743240307E-003	1.6599672E-006
2	0	0	1	4.743219880176184E+001	-3.7376401E-001	-3.7380525E-001	-4.654092787226990E-003	1.7397243E-006
2	0	0	0	4.793279878911562E+001	-3.7877002E-001	-3.7880987E-001	-4.836999450033332E-003	1.8323032E-006
2	0	0	1	4.843339877646940E+001	-3.8377604E-001	-3.8382319E-001	-5.009767263051412E-003	1.9228648E-006
2	0	0	0	4.893399876382318E+001	-3.8878199E-001	-3.8880852E-001	-5.196489039540217E-003	2.0204393E-006
2	0	0	0	4.943479875117191E+001	-3.9378992E-001	-3.9381877E-001	-5.385220271667782E-003	2.1208009E-006
2	0	0	1	4.993539873852569E+001	-3.9879605E-001	-3.9884192E-001	-5.587588178077689E-003	2.2285644E-006
2	0	0	0	5.043599872587947E+001	-4.0380207E-001	-4.0383196E-001	-5.756390532282024E-003	2.3246146E-006
2	0	0	1	5.093659871323325E+001	-4.0880805E-001	-4.0883976E-001	-5.956401602274834E-003	2.4352139E-006
2	0	0	0	5.143719870058703E+001	-4.1381401E-001	-4.1383663E-001	-6.175642665067427E-003	2.5557072E-006
2	0	0	1	5.193779868794081E+001	-4.1882005E-001	-4.1884625E-001	-6.392744493812497E-003	2.6775770E-006
2	0	0	0	5.243849867529207E+001	-4.2382711E-001	-4.2384771E-001	-6.604832659174560E-003	2.7994431E-006
2	0	0	0	5.293919866264332E+001	-4.2883405E-001	-4.2884615E-001	-6.856041552055582E-003	2.9401870E-006
2	0	0	1	5.343979864999710E+001	-4.3384001E-001	-4.3388122E-001	-7.086288527669918E-003	3.0746075E-006
2	0	0	0	5.394039863735088E+001	-4.3884602E-001	-4.3886834E-001	-7.312411195276272E-003	3.2091857E-006
2	0	0	1	5.444099862470466E+001	-4.4385207E-001	-4.4387916E-001	-7.569809131576372E-003	3.3600804E-006
2	0	0	0	5.494159861205844E+001	-4.4885820E-001	-4.4887772E-001	-7.840810298379547E-003	3.5195651E-006
2	0	0	1	5.544229859940970E+001	-4.5386511E-001	-4.5389059E-001	-8.116666515864068E-003	3.6840786E-006
2	0	0	1	5.594299858676095E+001	-4.5887202E-001	-4.5890066E-001	-8.378361605293067E-003	3.8448356E-006
2	0	0	0	5.644359857411473E+001	-4.6387807E-001	-4.6390095E-001	-8.638715837095523E-003	4.0075083E-006
2	0	0	1	5.694419856146851E+001	-4.6888405E-001	-4.6892098E-001	-8.943642469901082E-003	4.1938615E-006
2	0	0	0	5.744479854882229E+001	-4.7389019E-001	-4.7392324E-001	-9.241417174915806E-003	4.3797222E-006
2	0	0	1	5.794539853617607E+001	-4.7889614E-001	-4.7891688E-001	-9.556095050754332E-003	4.5765751E-006
2	0	0	0	5.844609852352733E+001	-4.8390308E-001	-4.8393783E-001	-9.844103918803526E-003	4.7639342E-006
2	0	0	0	5.896179851049965E+001	-4.8906001E-001	-4.8911348E-001	-1.016308949578976E-002	4.9709042E-006
2	0	0	1	5.947739849747450E+001	-4.9421611E-001	-4.9426016E-001	-1.049749782237908E-002	5.1884949E-006
2	0	0	0	5.997799848482828E+001	-4.9922219E-001	-4.9927339E-001	-1.084075196429285E-002	5.4124989E-006
2	0	0	1	6.047859847218206E+001	-5.0422817E-001	-5.0426853E-001	-1.121198486245352E-002	5.6538511E-006
2	0	0	0	6.097919845953584E+001	-5.0923419E-001	-5.0927973E-001	-1.157937054237121E-002	5.8971386E-006
2	0	0	0	6.147999844688457E+001	-5.1424211E-001	-5.1429796E-001	-1.193307391351919E-002	6.1371557E-006
2	0	0	1	6.198059843423835E+001	-5.1924813E-001	-5.1931387E-001	-1.231017468885320E-002	6.3928446E-006
2	0	0	0	6.248119842159213E+001	-5.2425426E-001	-5.2429664E-001	-1.269473344809058E-002	6.6558059E-006
2	0	0	1	6.298179840894591E+001	-5.2926028E-001	-5.2930456E-001	-1.307997266222236E-002	6.9232892E-006
2	0	0	0	6.348239839629969E+001	-5.3426623E-001	-5.3431046E-001	-1.348976394273657E-002	7.2077219E-006
2	0	0	1	6.398299838365347E+001	-5.3927219E-001	-5.3932524E-001	-1.397547666836477E-002	7.5373273E-006
2	0	0	0	6.448369837100472E+001	-5.4427922E-001	-5.4432666E-001	-1.445196489165032E-002	7.8665898E-006
2	0	0	0	6.498439835835597E+001	-5.4928637E-001	-5.4933381E-001	-1.487244213532853E-002	8.1699354E-006
2	0	0	1	6.548499834570976E+001	-5.5429232E-001	-5.5434430E-001	-1.535644219034546E-002	8.5127558E-006
2	0	0	0	6.598559833306354E+001	-5.5929828E-001	-5.5936444E-001	-1.582684238975807E-002	8.8529732E-006
2	0	0	1	6.648619832041732E+001	-5.6430429E-001	-5.6434429E-001	-1.627860342816995E-002	9.1867369E-006
2	0	0	0	6.698679830777110E+001	-5.6931037E-001	-5.6934565E-001	-1.674504748736819E-002	9.5337200E-006
2	0	0	1	6.748749829512235E+001	-5.7431746E-001	-5.7437700E-001	-1.723510084648316E-002	9.8994451E-006
2	0	0	1	6.798819828247360E+001	-5.7932425E-001	-5.7937485E-001	-1.771319368175273E-002	1.0262579E-005
2	0	0	0	6.848879826982738E+001	-5.8433038E-001	-5.8436447E-001	-1.822951936020251E-002	1.0652683E-005
2	0	0	1	6.898939825718116E+001	-5.8933634E-001	-5.8937997E-001	-1.878100516814857E-002	1.1069148E-005
2	0	0	0	6.948999824453495E+001	-5.9434259E-001	-5.9439445E-001	-1.934388466218344E-002	1.1497898E-005
2	0	0	1	6.999059823188873E+001	-5.9934855E-001	-5.9939718E-001	-1.988372632202701E-002	1.1918250E-005
2	0	0	0	7.049129821923998E+001	-6.0435539E-001	-6.0440755E-001	-2.046050057422338E-002	1.2366481E-005
2	0	0	0	7.099199820659123E+001	-6.0936236E-001	-6.0940754E-001	-2.105685249341566E-002	1.2832204E-005
2	0	0	1	7.149259819394501E+001	-6.1436832E-001	-6.1441916E-001	-2.164861532044868E-002	1.3301325E-005
2	0	0	0	7.199319818129879E+001	-6.1937451E-001	-6.1942571E-001	-2.227993955631902E-002	1.3800767E-005
2	0	0	1	7.249379816865257E+001	-6.2438071E-001	-6.2443417E-001	-2.294468073752615E-002	1.4327443E-005
2	0	0	0	7.299439815600635E+001	-6.2938643E-001	-6.2943316E-001	-2.357354786612811E-002	1.4837972E-005
2	0	0	1	7.349499814336014E+001	-6.3439256E-001	-6.3444304E-001	-2.425072987519811E-002	1.5385707E-005
2	0	0	0	7.399569813071139E+001	-6.3939941E-001	-6.3942802E-001	-2.491637134654338E-002	1.5932226E-005
2	0	0	0	7.449639811806264E+001	-6.4440650E-001	-6.4442635E-001	-2.558384687497317E-002	1.6486905E-005
2	0	0	1	7.499699810541642E+001	-6.4941263E-001	-6.4944136E-001	-2.625258404488101E-002	1.7049513E-005
2	0	0	0	7.549759809277020E+001	-6.5441841E-001	-6.5443575E-001	-2.697730289333289E-002	1.7654911E-005
2	0	0	1	7.599819808012398E+001	-6.5942460E-001	-6.5944898E-001	-2.772271658562608E-002	1.8281717E-005
2	0	0	0	7.649879806747776E+001	-6.6443056E-001	-6.6445833E-001	-2.843734445557551E-002	1.8895431E-005
2	0	0	1	7.699949805482902E+001	-6.6943759E-001	-6.6947073E-001	-2.916927335705910E-002	1.9527975E-005
2	0	0	1	7.750019804218027E+001	-6.7444462E-001	-6.7446381E-001	-2.993017537811771E-002	2.0186821E-005
2	0	0	0	7.800079802953405E+001	-6.7945051E-001	-6.7946744E-001	-3.069850613501441E-002	2.0858635E-005
2	0	0	1	7.850139801688783E+001	-6.8445665E-001	-6.8448007E-001	-3.156485440851869E-002	2.1605514E-005
2	0	0	0	7.900199800424161E+001	-6.8946254E-001	-6.8948179E-001	-3.233942661846900E-002	2.2297447E-005
2	0	0	1	7.950259799159539E+001	-6.9446868E-001	-6.9447786E-001	-3.316885178790219E-002	2.3035032E-005
2	0	0	0	8.000329797894665E+001	-6.9947571E-001	-6.9949514E-001	-3.403348517054627E-002	2.3806257E-005
2	0	0	0	8.050399796629790E+001	-7.0448250E-001	-7.0450401E-001	-3.488707800785107E-002	2.4578087E-005
2	0	0	1	8.100459795365168E+001	-7.0948875E-001	-7.0950764E-001	-3.577879434028122E-002	2.5385329E-005
2	0	0	0	8.150519794100546E+001	-7.1449471E-001	-7.1450579E-001	-3.659901261590004E-002	2.6150206E-005
2	0	0	1	8.200579792835924E+001	-7.1950066E-001	-7.1951085E-001	-3.755982890898735E-002	2.7024704E-005
2	0	0	0	8.250639791571302E+001	-7.2450680E-001	-7.2453606E-001	-3.851899368631506E-002	2.7908400E-005
2	0	0	1	8.300699790306680E+001	-7.2951257E-001	-7.2952008E-001	-3.938240029622619E-002	2.8730252E-005
2	0	0	0	8.350769789041806E+001	-7.3451984E-001	-7.3452157E-001	-4.024593939298804E-002	2.9561510E-005
2	0	0	0	8.400839787776931E+001	-7.3952681E-001	-7.3951924E-001	-4.120028667202513E-002	3.0468405E-005
2	0	0	1	8.450899786512309E+001	-7.4453270E-001	-7.4453425E-001	-4.220113663043201E-002	3.1420193E-005
2	0	0	0	8.500959785247687E+001	-7.4953878E-001	-7.4955428E-001	-4.321031932762792E-002	3.2388478E-005
2	0	0	1	8.551019783983065E+001	-7.5454462E-001	-7.5456280E-001	-4.424674381757276E-002	3.3386947E-005
2	0	0	0	8.601079782718443E+001	-7.5955087E-001	-7.5956106E-001	-4.521017821349183E-002	3.4339890E-005
2	0	0	1	8.651149781453569E+001	-7.6455796E-001	-7.6458102E-001	-4.622905562840851E-002	3.5345860E-005
2	0	0	1	8.701219780188694E+001	-7.6956463E-001	-7.6959193E-001	-4.730038663548680E-002	3.6401994E-005
2	0	0	0	8.751279778924072E+001	-7.7457088E-001	-7.7459079E-001	-4.834144006823571E-002	3.7444835E-005
2	0	0	1	8.801339777659450E+001	-7.7957672E-001	-7.7960461E-001	-4.943823372310130E-002	3.8542275E-005
2	0	0	0	8.851399776394828E+001	-7.8458291E-001	-7.8460598E-001	-5.057006805429887E-002	3.9677579E-005
2	0	0	1	8.901459775130206E+001	-7.8958905E-001	-7.8962982E-001	-5.167827416558179E-002	4.0806706E-005
2	0	0	0	8.951529773865332E+001	-7.9459566E-001	-7.9463464E-001	-5.276723391171767E-002	4.1930671E-005
2	0	0	0	9.001599772600457E+001	-7.9960287E-001	-7.9963708E-001	-5.401701609999321E-002	4.3194010E-005
2	0	0	1	9.051659771335835E+001	-8.0460870E-001	-8.0462193E-001	-5.513414180302978E-002	4.4362139E-005
2	0	0	0	9.101719770071213E+001	-8.0961490E-001	-8.0965811E-001	-5.630876357210124E-002	4.5590848E-005
2	0	0	1	9.151779768806591E+001	-8.1462109E-001	-8.1465346E-001	-5.744372726269362E-002	4.6796729E-005
2	0	0	0	9.201839767541969E+001	-8.1962681E-001	-8.1967229E-001	-5.872434667444387E-002	4.8134720E-005
2	0	0	1	9.251909766277095E+001	-8.2463390E-001	-8.2466882E-001	-5.998586831087310E-002	4.9468475E-005
2	0	0	1	9.301979765012220E+001	-8.2964069E-001	-8.2970297E-001	-6.122855102032896E-002	5.0801511E-005
2	0	0	0	9.352039763747598E+001	-8.3464688E-001	-8.3469057E-001	-6.251838092480269E-002	5.2183503E-005
2	0	0	1	9.402099762482976E+001	-8.3965302E-001	-8.3968288E-001	-6.371530681879767E-002	5.3500651E-005
2	0	0	0	9.452159761218354E+001	-8.4465873E-001	-8.4468991E-001	-6.502825925928024E-002	5.4928714E-005
2	0	0	1	9.502219759953732E+001	-8.4966505E-001	-8.4971905E-001	-6.626608477770990E-002	5.6307555E-005
2	0	0	0	9.552279758689110E+001	-8.5467076E-001	-8.5471404E-001	-6.769753027071479E-002	5.7862031E-005
2	0	0	1	9.602349757424236E+001	-8.5967779E-001	-8.5971940E-001	-6.892881638481663E-002	5.9259441E-005
2	0	0	1	9.652419756159361E+001	-8.6468512E-001	-8.6473018E-001	-7.024312342649242E-002	6.0741349E-005
2	0	0	0	9.702479754894739E+001	-8.6969078E-001	-8.6974865E-001	-7.172873498479393E-002	6.2385974E-005
2	0	0	1	9.752539753630117E+001	-8.7469703E-001	-8.7473124E-001	-7.310934129099866E-002	6.3951025E-005
2	0	0	0	9.802599752365495E+001	-8.7970287E-001	-8.7970781E-001	-7.464005878324864E-002	6.5661443E-005
2	0	0	1	9.852659751100873E+001	-8.8470894E-001	-8.8472372E-001	-7.608311094311304E-002	6.7312532E-005
2	0	0	0	9.902729749835999E+001	-8.8971609E-001	-8.8975066E-001	-7.746262747280175E-002	6.8922425E-005
2	0	0	0	9.952799748571124E+001	-8.9472282E-001	-8.9475638E-001	-7.893454939577499E-002	7.0627189E-005
2	0	0	1	1.000285974730650E+002	-8.9972907E-001	-8.9976770E-001	-8.035256348251485E-002	7.2298644E-005
2	0	0	0	1.005291974604188E+002	-9.0473503E-001	-9.0476000E-001	-8.179823466056069E-002	7.4007774E-005
2	0	0	1	1.010297974477726E+002	-9.0974098E-001	-9.0977120E-001	-8.328833482971892E-002	7.5773329E-005
2	0	0	0	1.015303974351264E+002	-9.1474712E-001	-9.1477776E-001	-8.487758818958932E-002	7.7644130E-005
2	0	0	1	1.020310974224776E+002	-9.1975385E-001	-9.1976774E-001	-8.631984272859738E-002	7.9394209E-005
2	0	0	1	1.025317974098289E+002	-9.2476112E-001	-9.2479223E-001	-8.798572408190646E-002	8.1368511E-005
2	0	0	0	1.030323973971826E+002	-9.2976707E-001	-9.2980534E-001	-8.965320635987739E-002	8.3360028E-005
2	0	0	1	1.035329973845364E+002	-9.3477297E-001	-9.3480229E-001	-9.125491151853843E-002	8.5305299E-005
2	0	0	0	1.040335973718902E+002	-9.3977916E-001	-9.3980545E-001	-9.284986643384840E-002	8.7260807E-005
2	0	0	1	1.045341973592440E+002	-9.4478482E-001	-9.4481534E-001	-9.446668256863555E-002	8.9253568E-005
2	0	0	0	1.050347973465978E+002	-9.4979125E-001	-9.4981921E-001	-9.602047718997708E-002	9.1202091E-005
2	0	0	0	1.055355973339465E+002	-9.5479900E-001	-9.5479918E-001	-9.778956035222297E-002	9.3369388E-005
2	0	0	1	1.060361973213003E+002	-9.5980483E-001	-9.5979828E-001	-9.935491295291210E-002	9.5360672E-005
2	0	0	0	1.065367973086541E+002	-9.6481103E-001	-9.6483517E-001	-1.010313848410609E-001	9.7478631E-005
2	0	0	1	1.070548972955658E+002	-9.6999192E-001	-9.7000885E-001	-1.028016979289104E-001	9.9718556E-005
2	0	0	1	1.075729972824774E+002	-9.7517318E-001	-9.7519517E-001	-1.045760084608478E-001	1.0198202E-004
2	0	0	1	1.080737972698262E+002	-9.8018116E-001	-9.8020655E-001	-1.062561265496399E-001	1.0415295E-004
2	0	0	0	1.085743972571800E+002	-9.8518693E-001	-9.8522568E-001	-1.080259255480982E-001	1.0642991E-004
2	0	0	1	1.090749972445337E+002	-9.9019325E-001	-9.9022204E-001	-1.098241665247899E-001	1.0875031E-004
2	0	0	0	1.095755972318875E+002	-9.9519891E-001	-9.9521458E-001	-1.114747422921349E-001	1.1094129E-004
2	0	0	1	1.099385972227174E+002	-9.9882823E-001	-9.9884313E-001	-1.127266738248853E-001	1.1259627E-004
2	0	0	0	1.100533972198173E+002	-9.9997830E-001	-1.0000190E+000	-1.130382314972256E-001	1.1304038E-004