EC-Lab ASCII FILE
Nb header lines : 55                          

I-V Characterization

Run on channel : 1 (SN 6514)
User : 
CE vs. WE compliance from -10 V to 10 V
Electrode connection : standard
Ewe ctrl range : min = -1.10 V, max = 0.20 V
Safety Limits :
	Do not start on E overload
Acquisition started on : 06/15/2016 17:54:10
Saved on :
	File : B125-G54-UN-G-D1GB-C6 FW 10mVs_C01.mpr
	Directory : E:\EC-Lab measurements\B125-G54-UN-G-D1GB\
	Host : 10.0.2.15
Device : VSP (SN 0295)
Address : USB
EC-Lab for windows v11.01 (software)
Internet server v11.00 (firmware)
Command interpretor v11.00 (firmware)
Electrode material : 
Initial state : 
Electrolyte : 
Comments : 
Electrode surface area : 0.001 cm²
Characteristic mass : 0.001 g
Equivalent Weight : 0.000 g/eq.
Density : 0.000 g/cm3
tR (h:m:s)          0:00:0.0000         
dER/dt (mV/h)       0.0                 
dER (mV)            0                   
dtR (s)             0.0000              
dE/dt               10.000              
dE/dt unit          mV/s                
Ei (V)              0.100               
vs.                 Ref                 
EL (V)              -1.000              
vs.                 Ref                 
record              <I>                 
dI                  0.000               
unit dI             µA                  
tI (s)              0.1000              
step percent        100                 
N                   100                 
E range min (V)     -1.100              
E range max (V)     0.200               
I Range             Auto                
I Range min         Unset               
I Range max         Unset               
I Range init        Unset               
Bandwidth           5                   

mode	ox/red	error	control changes	time/s	control/V	Ewe/V	<I>/mA	P/W
2	0	0	0	1.449999963369919E-001	9.9088311E-002	9.8823957E-002	1.092197895050049E+000	1.0793532E-004
2	0	0	1	3.977999899507267E-001	9.6560217E-002	9.6457601E-002	1.085003331894828E+000	1.0465682E-004
2	0	0	0	8.983999773045070E-001	9.1554172E-002	9.1438599E-002	1.045590314364432E+000	9.5607313E-005
2	0	0	1	1.399099964655761E+000	8.6547226E-002	8.6434484E-002	1.016376107047918E+000	8.7849941E-005
2	0	0	1	1.899799952007015E+000	8.1540257E-002	8.1444867E-002	1.009369986091738E+000	8.2208004E-005
2	0	0	0	2.400399939360796E+000	7.6534286E-002	7.6427273E-002	9.998900537159532E-001	7.6418874E-005
2	0	0	1	2.900999926714576E+000	7.1528248E-002	7.1417943E-002	9.920483372567963E-001	7.0850052E-005
2	0	0	0	3.401599914068356E+000	6.6522300E-002	6.6412546E-002	9.873364269232852E-001	6.5571527E-005
2	0	0	1	3.902199901422136E+000	6.1516285E-002	6.1412096E-002	9.854624447499170E-001	6.0519313E-005
2	0	0	0	4.402799888775917E+000	5.6510270E-002	5.6389436E-002	9.813315769613711E-001	5.5336735E-005
2	0	0	0	4.903599876124645E+000	5.1502351E-002	5.1391348E-002	9.793951817879218E-001	5.0332437E-005
2	0	0	1	5.404199863478425E+000	4.6496343E-002	4.6382185E-002	9.782605915980405E-001	4.5373865E-005
2	0	0	0	5.904799850832205E+000	4.1490331E-002	4.1390117E-002	9.759698473792016E-001	4.0395505E-005
2	0	0	1	6.405399838185986E+000	3.6484335E-002	3.6382161E-002	9.723460655505107E-001	3.5376052E-005
2	0	0	0	6.905999825539766E+000	3.1478345E-002	3.1368729E-002	9.728531327836221E-001	3.0517165E-005
2	0	0	1	7.406599812893546E+000	2.6472323E-002	2.6358571E-002	9.652940670875627E-001	2.5443773E-005
2	0	0	0	7.907299800244800E+000	2.1465354E-002	2.1356229E-002	9.644125837558830E-001	2.0596215E-005
2	0	0	0	8.407999787596054E+000	1.6458431E-002	1.6350770E-002	9.602460773692387E-001	1.5700763E-005
2	0	0	1	8.908599774949835E+000	1.1452433E-002	1.1324896E-002	9.594828845027905E-001	1.0866044E-005
2	0	0	0	9.409199762303615E+000	6.4464165E-003	6.3026710E-003	9.583389528694557E-001	6.0400953E-006
2	0	0	1	9.909799749657395E+000	1.4401434E-003	1.3263174E-003	9.560749405910034E-001	1.2680589E-006
2	0	0	0	1.041039973701118E+001	-3.5655897E-003	-3.6956237E-003	9.541765959112398E-001	3.5262776E-006
2	0	0	1	1.091099972436496E+001	-8.5716275E-003	-8.7112011E-003	9.521195193728955E-001	8.2941042E-006
2	0	0	1	1.141179971171368E+001	-1.3579566E-002	-1.3693867E-002	9.509533161939983E-001	1.3022229E-005
2	0	0	0	1.191239969906746E+001	-1.8585583E-002	-1.8688437E-002	9.505583043027970E-001	1.7764449E-005
2	0	0	1	1.241299968642124E+001	-2.3591625E-002	-2.3696106E-002	9.474543984027237E-001	2.2450980E-005
2	0	0	0	1.291359967377502E+001	-2.8597642E-002	-2.8710853E-002	9.457687910452126E-001	2.7153828E-005
2	0	0	1	1.341419966112881E+001	-3.3603657E-002	-3.3726379E-002	9.420016792757924E-001	3.1770305E-005
2	0	0	0	1.391479964848259E+001	-3.8609680E-002	-3.8715806E-002	9.428147901822594E-001	3.6501835E-005
2	0	0	1	1.441549963583384E+001	-4.3616630E-002	-4.3729100E-002	9.404332439754146E-001	4.1124298E-005
2	0	0	1	1.491619962318509E+001	-4.8623618E-002	-4.8737619E-002	9.354073300629944E-001	4.5589528E-005
2	0	0	0	1.541679961053887E+001	-5.3629633E-002	-5.3731594E-002	9.353951712933588E-001	5.0260274E-005
2	0	0	1	1.591739959789265E+001	-5.8635667E-002	-5.8761638E-002	9.331049329016081E-001	5.4830773E-005
2	0	0	0	1.641799958524643E+001	-6.3641690E-002	-6.3744470E-002	9.283189466240387E-001	5.9175200E-005
2	0	0	1	1.691859957260021E+001	-6.8647705E-002	-6.8757311E-002	9.285209634627885E-001	6.3842606E-005
2	0	0	0	1.741929955995147E+001	-7.3654741E-002	-7.3749870E-002	9.264956612538562E-001	6.8328933E-005
2	0	0	0	1.791999954730272E+001	-7.8661695E-002	-7.8766152E-002	9.274792857908807E-001	7.3053976E-005
2	0	0	1	1.842059953465650E+001	-8.3667718E-002	-8.3780184E-002	9.246643412259647E-001	7.7468547E-005
2	0	0	0	1.892119952201028E+001	-8.8673741E-002	-8.8791274E-002	9.221822570302907E-001	8.1881735E-005
2	0	0	1	1.942179950936406E+001	-9.3679763E-002	-9.3778193E-002	9.219028211006233E-001	8.6454384E-005
2	0	0	0	1.992239949671784E+001	-9.8685794E-002	-9.8784052E-002	9.186610747933432E-001	9.0749061E-005
2	0	0	1	2.042299948407162E+001	-1.0369179E-001	-1.0379209E-001	9.156517030505924E-001	9.5037401E-005
2	0	0	0	2.092369947142288E+001	-1.0869877E-001	-1.0880716E-001	9.115977698362876E-001	9.9188364E-005
2	0	0	0	2.142439945877413E+001	-1.1370575E-001	-1.1379696E-001	9.111042641483775E-001	1.0368089E-004
2	0	0	1	2.192499944612791E+001	-1.1871177E-001	-1.1882243E-001	9.100877611281144E-001	1.0813883E-004
2	0	0	0	2.242559943348169E+001	-1.2371783E-001	-1.2381300E-001	9.068273155664741E-001	1.1227700E-004
2	0	0	1	2.292619942083547E+001	-1.2872380E-001	-1.2881900E-001	9.057428124243465E-001	1.1667689E-004
2	0	0	0	2.342679940818925E+001	-1.3372983E-001	-1.3383436E-001	9.045020856370858E-001	1.2105346E-004
2	0	0	1	2.392749939554051E+001	-1.3873681E-001	-1.3882552E-001	9.007234438561289E-001	1.2504340E-004
2	0	0	1	2.442819938289176E+001	-1.4374384E-001	-1.4386272E-001	8.983494578160895E-001	1.2923899E-004
2	0	0	0	2.492879937024554E+001	-1.4874986E-001	-1.4886521E-001	8.955394510427235E-001	1.3331466E-004
2	0	0	1	2.542939935759932E+001	-1.5375586E-001	-1.5387794E-001	8.951137385746328E-001	1.3773826E-004
2	0	0	0	2.592999934495310E+001	-1.5876192E-001	-1.5889055E-001	8.938246449656893E-001	1.4202029E-004
2	0	0	1	2.643059933230688E+001	-1.6376792E-001	-1.6390720E-001	8.898894616645574E-001	1.4585929E-004
2	0	0	0	2.693119931966066E+001	-1.6877396E-001	-1.6889736E-001	8.887064505904383E-001	1.5010017E-004
2	0	0	0	2.743199930700939E+001	-1.7378190E-001	-1.7390861E-001	8.876998304470760E-001	1.5437863E-004
2	0	0	1	2.793259929436317E+001	-1.7878793E-001	-1.7892341E-001	8.839078653788421E-001	1.5815182E-004
2	0	0	0	2.843319928171695E+001	-1.8379395E-001	-1.8394202E-001	8.809050989114486E-001	1.6203546E-004
2	0	0	1	2.893379926907073E+001	-1.8879995E-001	-1.8893154E-001	8.799709854916937E-001	1.6625428E-004
2	0	0	0	2.943439925642451E+001	-1.9380601E-001	-1.9394743E-001	8.758759826241143E-001	1.6987389E-004
2	0	0	1	2.993499924377829E+001	-1.9881199E-001	-1.9895279E-001	8.744128151763153E-001	1.7396687E-004
2	0	0	0	3.043569923112955E+001	-2.0381899E-001	-2.0397796E-001	8.744863195745483E-001	1.7837594E-004
2	0	0	0	3.093639921848080E+001	-2.0882599E-001	-2.0897444E-001	8.701178652232180E-001	1.8183239E-004
2	0	0	1	3.143699920583458E+001	-2.1383196E-001	-2.1397647E-001	8.679328629719483E-001	1.8571722E-004
2	0	0	0	3.193759919318836E+001	-2.1883802E-001	-2.1897805E-001	8.649507034058734E-001	1.8940521E-004
2	0	0	1	3.243819918054214E+001	-2.2384402E-001	-2.2397991E-001	8.594283772719518E-001	1.9249468E-004
2	0	0	0	3.293879916789592E+001	-2.2885005E-001	-2.2899207E-001	8.539016437420415E-001	1.9553670E-004
2	0	0	1	3.343939915524970E+001	-2.3385608E-001	-2.3400463E-001	8.523356733269001E-001	1.9945050E-004
2	0	0	1	3.394019914259843E+001	-2.3886400E-001	-2.3899405E-001	8.480344959101860E-001	2.0267519E-004
2	0	0	0	3.444079912995221E+001	-2.4387003E-001	-2.4401572E-001	8.440955472141489E-001	2.0597258E-004
2	0	0	1	3.494139911730599E+001	-2.4887599E-001	-2.4898723E-001	8.427625853073493E-001	2.0983712E-004
2	0	0	0	3.544199910465977E+001	-2.5388205E-001	-2.5399265E-001	8.388819398547014E-001	2.1306984E-004
2	0	0	1	3.594259909201355E+001	-2.5888810E-001	-2.5900924E-001	8.330989516988305E-001	2.1578032E-004
2	0	0	0	3.644319907936733E+001	-2.6389408E-001	-2.6401094E-001	8.300905107187315E-001	2.1915298E-004
2	0	0	1	3.694389906671859E+001	-2.6890108E-001	-2.6901728E-001	8.243857588811261E-001	2.2177401E-004
2	0	0	1	3.744459905406984E+001	-2.7390811E-001	-2.7402890E-001	8.206104947244057E-001	2.2487099E-004
2	0	0	0	3.794519904142362E+001	-2.7891415E-001	-2.7902260E-001	8.167258468205165E-001	2.2788497E-004
2	0	0	1	3.844579902877740E+001	-2.8392014E-001	-2.8403300E-001	8.108321003005834E-001	2.3030308E-004
2	0	0	0	3.894639901613118E+001	-2.8892615E-001	-2.8904852E-001	8.043155799639381E-001	2.3248623E-004
2	0	0	1	3.944699900348496E+001	-2.9393214E-001	-2.9404116E-001	8.012435557252990E-001	2.3559858E-004
2	0	0	0	3.994769899083622E+001	-2.9893923E-001	-2.9905462E-001	7.968630128045890E-001	2.3830557E-004
2	0	0	0	4.044839897818747E+001	-3.0394620E-001	-3.0407393E-001	7.896618095340209E-001	2.4011557E-004
2	0	0	1	4.094899896554125E+001	-3.0895218E-001	-3.0908376E-001	7.843608630612113E-001	2.4243321E-004
2	0	0	0	4.144959895289503E+001	-3.1395820E-001	-3.1408370E-001	7.804244789866730E-001	2.4511860E-004
2	0	0	1	4.195019894024881E+001	-3.1896424E-001	-3.1908691E-001	7.727011844428464E-001	2.4655883E-004
2	0	0	0	4.245079892760259E+001	-3.2397029E-001	-3.2409111E-001	7.666786558792822E-001	2.4847372E-004
2	0	0	1	4.295139891495637E+001	-3.2897633E-001	-3.2907131E-001	7.596702457250091E-001	2.4998569E-004
2	0	0	0	4.345209890230763E+001	-3.3398330E-001	-3.3407804E-001	7.547443425066387E-001	2.5214351E-004
2	0	0	0	4.395279888965888E+001	-3.3899021E-001	-3.3909944E-001	7.485184382816605E-001	2.5382219E-004
2	0	0	1	4.445339887701266E+001	-3.4399623E-001	-3.4409744E-001	7.388469166221032E-001	2.5423532E-004
2	0	0	0	4.495399886436644E+001	-3.4900233E-001	-3.4912029E-001	7.317721723354813E-001	2.5547651E-004
2	0	0	1	4.545459885172022E+001	-3.5400838E-001	-3.5413155E-001	7.245730869297304E-001	2.5659418E-004
2	0	0	0	4.595519883907400E+001	-3.5901436E-001	-3.5914704E-001	7.158159427935544E-001	2.5708319E-004
2	0	0	1	4.645589882642525E+001	-3.6402127E-001	-3.6414894E-001	7.096297872775619E-001	2.5841093E-004
2	0	0	1	4.695659881377651E+001	-3.6902830E-001	-3.6915034E-001	7.012501050003106E-001	2.5886673E-004
2	0	0	0	4.745719880113029E+001	-3.7403437E-001	-3.7416950E-001	6.915440529760881E-001	2.5875471E-004
2	0	0	1	4.795779878848407E+001	-3.7904039E-001	-3.7914121E-001	6.826600884149805E-001	2.5882458E-004
2	0	0	0	4.845839877583785E+001	-3.8404638E-001	-3.8418823E-001	6.753394969359956E-001	2.5945748E-004
2	0	0	1	4.895899876319163E+001	-3.8905233E-001	-3.8918090E-001	6.653424398841716E-001	2.5893855E-004
2	0	0	0	4.945959875054541E+001	-3.9405835E-001	-3.9417666E-001	6.535453005884566E-001	2.5761229E-004
2	0	0	0	4.996039873789414E+001	-3.9906639E-001	-3.9919865E-001	6.446163114215966E-001	2.5732996E-004
2	0	0	1	5.046099872524792E+001	-4.0407240E-001	-4.0420914E-001	6.344251550294979E-001	2.5644046E-004
2	0	0	0	5.096159871260170E+001	-4.0907839E-001	-4.0918961E-001	6.254188505490346E-001	2.5591490E-004
2	0	0	1	5.146219869995548E+001	-4.1408435E-001	-4.1421109E-001	6.161146638681538E-001	2.5520154E-004
2	0	0	0	5.196279868730926E+001	-4.1909039E-001	-4.1921481E-001	6.043293079334049E-001	2.5334381E-004
2	0	0	1	5.246339867466304E+001	-4.2409655E-001	-4.2421165E-001	5.928204204988177E-001	2.5148134E-004
2	0	0	0	5.296409866201429E+001	-4.2910349E-001	-4.2921332E-001	5.832859562176118E-001	2.5035409E-004
2	0	0	0	5.346479864936555E+001	-4.3411040E-001	-4.3422043E-001	5.718897922999773E-001	2.4832622E-004
2	0	0	1	5.396539863671933E+001	-4.3911633E-001	-4.3923664E-001	5.584653869822755E-001	2.4529846E-004
2	0	0	0	5.446599862407311E+001	-4.4412240E-001	-4.4423616E-001	5.484235241387845E-001	2.4362956E-004
2	0	0	1	5.496659861142689E+001	-4.4912848E-001	-4.4923919E-001	5.370583266350657E-001	2.4126765E-004
2	0	0	0	5.546719859878067E+001	-4.5413455E-001	-4.5425132E-001	5.238839636528976E-001	2.3797498E-004
2	0	0	1	5.596779858613445E+001	-4.5914048E-001	-4.5926851E-001	5.125730135782485E-001	2.3540865E-004
2	0	0	1	5.646859857348318E+001	-4.6414840E-001	-4.6426687E-001	5.011548258784089E-001	2.3266958E-004
2	0	0	0	5.698669856039487E+001	-4.6932936E-001	-4.6943998E-001	4.871998917920077E-001	2.2871111E-004
2	0	0	0	5.750479854730656E+001	-4.7451052E-001	-4.7458574E-001	4.746061532645631E-001	2.2524131E-004
2	0	0	1	5.800539853466034E+001	-4.7951660E-001	-4.7958687E-001	4.628945223497367E-001	2.2199814E-004
2	0	0	0	5.850609852201160E+001	-4.8452353E-001	-4.8460412E-001	4.510109070225568E-001	2.1856175E-004
2	0	0	0	5.900679850936285E+001	-4.8953041E-001	-4.8959512E-001	4.374358574934476E-001	2.1416646E-004
2	0	0	1	5.950739849671663E+001	-4.9453643E-001	-4.9463284E-001	4.251966733645030E-001	2.1031624E-004
2	0	0	0	6.000799848407041E+001	-4.9954250E-001	-4.9962711E-001	4.109382435538720E-001	2.0531588E-004
2	0	0	1	6.050859847142419E+001	-5.0454867E-001	-5.0463492E-001	3.990596230500434E-001	2.0137941E-004
2	0	0	0	6.100919845877797E+001	-5.0955462E-001	-5.0963229E-001	3.865958138323844E-001	1.9702171E-004
2	0	0	1	6.150979844613175E+001	-5.1456058E-001	-5.1464832E-001	3.723063082905593E-001	1.9160681E-004
2	0	0	0	6.201049843348301E+001	-5.1956749E-001	-5.1967239E-001	3.596487860295730E-001	1.8689955E-004
2	0	0	0	6.251119842083426E+001	-5.2457452E-001	-5.2464545E-001	3.460519855270916E-001	1.8155460E-004
2	0	0	1	6.301179840818804E+001	-5.2958065E-001	-5.2966267E-001	3.326511650020438E-001	1.7619290E-004
2	0	0	0	6.351239839554182E+001	-5.3458667E-001	-5.3467119E-001	3.197146209793642E-001	1.7094219E-004
2	0	0	1	6.401299838289560E+001	-5.3959268E-001	-5.3967744E-001	3.059804046956627E-001	1.6513072E-004
2	0	0	0	6.451359837024938E+001	-5.4459858E-001	-5.4468000E-001	2.929749595995661E-001	1.5957760E-004
2	0	0	1	6.501429835760064E+001	-5.4960573E-001	-5.4968977E-001	2.803289753524858E-001	1.5409397E-004
2	0	0	1	6.551499834495189E+001	-5.5461264E-001	-5.5470765E-001	2.670540344623413E-001	1.4813691E-004
2	0	0	0	6.601559833230567E+001	-5.5961871E-001	-5.5970836E-001	2.535529357017685E-001	1.4191569E-004
2	0	0	1	6.651619831965945E+001	-5.6462467E-001	-5.6470680E-001	2.400231649083729E-001	1.3554271E-004
2	0	0	0	6.701679830701323E+001	-5.6963062E-001	-5.6972849E-001	2.271679227041843E-001	1.2942404E-004
2	0	0	1	6.751739829436701E+001	-5.7463682E-001	-5.7473272E-001	2.143388793300729E-001	1.2318756E-004
2	0	0	0	6.801799828172079E+001	-5.7964289E-001	-5.7971931E-001	2.011042247746156E-001	1.1658400E-004
2	0	0	1	6.851869826907205E+001	-5.8464980E-001	-5.8473998E-001	1.876769346473444E-001	1.0974221E-004
2	0	0	1	6.901939825642330E+001	-5.8965671E-001	-5.8973670E-001	1.745889841468120E-001	1.0296153E-004
2	0	0	0	6.951999824377708E+001	-5.9466267E-001	-5.9474856E-001	1.614124614312089E-001	9.5999829E-005
2	0	0	1	7.002059823113086E+001	-5.9966886E-001	-5.9975749E-001	1.492402818960985E-001	8.9507979E-005
2	0	0	0	7.052119821848464E+001	-6.0467488E-001	-6.0477364E-001	1.360482841596056E-001	8.2278413E-005
2	0	0	1	7.102179820583842E+001	-6.0968083E-001	-6.0977072E-001	1.229316623928165E-001	7.4960131E-005
2	0	0	0	7.152249819318968E+001	-6.1468786E-001	-6.1478150E-001	1.098941175264507E-001	6.7560868E-005
2	0	0	0	7.202319818054093E+001	-6.1969471E-001	-6.1980611E-001	9.751908538528664E-002	6.0442926E-005
2	0	0	1	7.252379816789471E+001	-6.2470084E-001	-6.2479705E-001	8.458450223213942E-002	5.2848147E-005
2	0	0	0	7.302439815524849E+001	-6.2970698E-001	-6.2980407E-001	7.214742531011575E-002	4.5438741E-005
2	0	0	1	7.352499814260227E+001	-6.3471293E-001	-6.3480014E-001	5.954805476458824E-002	3.7801114E-005
2	0	0	0	7.404319812951144E+001	-6.3989514E-001	-6.3998234E-001	4.640279504790179E-002	2.9696970E-005
2	0	0	1	7.456139811642061E+001	-6.4507681E-001	-6.4514524E-001	3.349692859442976E-002	2.1610384E-005
2	0	0	0	7.506199810377439E+001	-6.5008295E-001	-6.5014362E-001	2.105705311395556E-002	1.3690109E-005
2	0	0	1	7.558009809068608E+001	-6.5526378E-001	-6.5532863E-001	8.433952579443516E-003	5.5270107E-006
2	0	0	1	7.609819807759777E+001	-6.6044503E-001	-6.6051215E-001	-4.086647485602321E-003	2.6992802E-006
2	0	0	0	7.661639806450694E+001	-6.6562724E-001	-6.6568792E-001	-1.633274325889361E-002	1.0872510E-005
2	0	0	1	7.713459805141611E+001	-6.7080891E-001	-6.7088288E-001	-2.911459501487595E-002	1.9532483E-005
2	0	0	0	7.763519803876989E+001	-6.7581493E-001	-6.7588109E-001	-4.116319837860066E-002	2.7821427E-005
2	0	0	1	7.813579802612367E+001	-6.8082088E-001	-6.8087679E-001	-5.309874441682649E-002	3.6153702E-005
2	0	0	0	7.863639801347745E+001	-6.8582714E-001	-6.8588907E-001	-6.506888147375256E-002	4.4630033E-005
2	0	0	1	7.913709800082870E+001	-6.9083422E-001	-6.9088989E-001	-7.686882593708133E-002	5.3107895E-005
2	0	0	1	7.963779798817995E+001	-6.9584095E-001	-6.9589394E-001	-8.833615157493813E-002	6.1472594E-005
2	0	0	0	8.015589797509165E+001	-7.0102191E-001	-7.0108336E-001	-1.001077801489235E-001	7.0183902E-005
2	0	0	0	8.067399796200334E+001	-7.0620304E-001	-7.0626897E-001	-1.124456795845843E-001	7.9416895E-005
2	0	0	1	8.117459794935712E+001	-7.1120918E-001	-7.1126878E-001	-1.240482801977163E-001	8.8231667E-005
2	0	0	0	8.167529793670838E+001	-7.1621639E-001	-7.1628314E-001	-1.351899810208818E-001	9.6834301E-005
2	0	0	0	8.217599792405963E+001	-7.2122300E-001	-7.2128570E-001	-1.464642467432309E-001	1.0564257E-004
2	0	0	1	8.267659791141341E+001	-7.2622907E-001	-7.2628105E-001	-1.576567664093678E-001	1.1450312E-004
2	0	0	0	8.317719789876719E+001	-7.3123491E-001	-7.3129827E-001	-1.690247097685389E-001	1.2360747E-004
2	0	0	1	8.367779788612097E+001	-7.3624122E-001	-7.3628461E-001	-1.796880260449298E-001	1.3230153E-004
2	0	0	0	8.417839787347475E+001	-7.4124730E-001	-7.4129748E-001	-1.905227459206971E-001	1.4123404E-004
2	0	0	1	8.467899786082853E+001	-7.4625307E-001	-7.4631083E-001	-2.016200848084189E-001	1.5047126E-004
2	0	0	0	8.517969784817979E+001	-7.5126016E-001	-7.5131524E-001	-2.127677533609054E-001	1.5985566E-004
2	0	0	0	8.568039783553104E+001	-7.5626695E-001	-7.5633860E-001	-2.234919510719832E-001	1.6903559E-004
2	0	0	1	8.618099782288482E+001	-7.6127321E-001	-7.6134074E-001	-2.343488217090042E-001	1.7841930E-004
2	0	0	0	8.668159781023860E+001	-7.6627934E-001	-7.6635140E-001	-2.449051426380958E-001	1.8768340E-004
2	0	0	1	8.718219779759238E+001	-7.7128518E-001	-7.7135020E-001	-2.552056543899162E-001	1.9685294E-004
2	0	0	0	8.768279778494616E+001	-7.7629125E-001	-7.7636135E-001	-2.660107976326813E-001	2.0652050E-004
2	0	0	1	8.818349777229741E+001	-7.8129804E-001	-7.8137022E-001	-2.759689677292475E-001	2.1563393E-004
2	0	0	1	8.868419775964867E+001	-7.8630531E-001	-7.8638113E-001	-2.863614617068704E-001	2.2518924E-004
2	0	0	0	8.918479774700245E+001	-7.9131132E-001	-7.9139400E-001	-2.970290287614832E-001	2.3506700E-004
2	0	0	1	8.968539773435623E+001	-7.9631716E-001	-7.9640239E-001	-3.072730008194614E-001	2.4471295E-004
2	0	0	0	9.018599772171001E+001	-8.0132329E-001	-8.0140388E-001	-3.172692486536981E-001	2.5426081E-004
2	0	0	1	9.068659770906379E+001	-8.0632907E-001	-8.0640793E-001	-3.279935521792616E-001	2.6449660E-004
2	0	0	0	9.118729769641504E+001	-8.1133640E-001	-8.1142163E-001	-3.381833828772720E-001	2.7440931E-004
2	0	0	0	9.168799768376630E+001	-8.1634337E-001	-8.1642950E-001	-3.484476013148550E-001	2.8448290E-004
2	0	0	1	9.218859767112008E+001	-8.2134914E-001	-8.2143557E-001	-3.578060405437578E-001	2.9391461E-004
2	0	0	0	9.268919765847386E+001	-8.2635528E-001	-8.2644528E-001	-3.681849032729003E-001	3.0428468E-004
2	0	0	1	9.318979764582764E+001	-8.3136117E-001	-8.3144903E-001	-3.783762946972775E-001	3.1460059E-004
2	0	0	0	9.369039763318142E+001	-8.3636743E-001	-8.3644378E-001	-3.881762186269109E-001	3.2468757E-004
2	0	0	1	9.419099762053520E+001	-8.4137350E-001	-8.4145445E-001	-3.973691712873455E-001	3.3436806E-004
2	0	0	0	9.469169760788645E+001	-8.4638023E-001	-8.4647208E-001	-4.072944939241472E-001	3.4476342E-004
2	0	0	0	9.519239759523771E+001	-8.5138738E-001	-8.5147661E-001	-4.170688938121954E-001	3.5512442E-004
2	0	0	1	9.569299758259149E+001	-8.5639310E-001	-8.5647988E-001	-4.264726257744398E-001	3.6526524E-004
2	0	0	0	9.619359756994527E+001	-8.6139935E-001	-8.6149454E-001	-4.368213592434600E-001	3.7631922E-004
2	0	0	1	9.669419755729905E+001	-8.6640543E-001	-8.6649239E-001	-4.458693043157824E-001	3.8634235E-004
2	0	0	0	9.719479754465283E+001	-8.7141132E-001	-8.7151027E-001	-4.556991688179650E-001	3.9714650E-004
2	0	0	1	9.769549753200408E+001	-8.7641841E-001	-8.7650526E-001	-4.655461681098503E-001	4.0805366E-004
2	0	0	1	9.819619751935534E+001	-8.8142508E-001	-8.8147187E-001	-4.750230794166592E-001	4.1871949E-004
2	0	0	0	9.869679750670912E+001	-8.8643146E-001	-8.8649154E-001	-4.836655289141170E-001	4.2876540E-004
2	0	0	1	9.919739749406290E+001	-8.9143753E-001	-8.9151418E-001	-4.940226969285142E-001	4.4042824E-004
2	0	0	0	9.969799748141668E+001	-8.9644337E-001	-8.9651191E-001	-5.034181382444238E-001	4.5132035E-004
2	0	0	1	1.001985974687705E+002	-9.0144950E-001	-9.0151787E-001	-5.129580582501916E-001	4.6244086E-004
2	0	0	0	1.006991974561242E+002	-9.0645528E-001	-9.0653795E-001	-5.220744313668995E-001	4.7328029E-004
2	0	0	1	1.011998974434755E+002	-9.1146237E-001	-9.1153824E-001	-5.316265254530792E-001	4.8459790E-004
2	0	0	1	1.017005974308267E+002	-9.1646951E-001	-9.1653419E-001	-5.415105476640694E-001	4.9631292E-004
2	0	0	0	1.022011974181805E+002	-9.2147529E-001	-9.2154676E-001	-5.509500531051894E-001	5.0772622E-004
2	0	0	1	1.027017974055343E+002	-9.2648154E-001	-9.2656529E-001	-5.599115915040791E-001	5.1879464E-004
2	0	0	0	1.032023973928881E+002	-9.3148726E-001	-9.3156511E-001	-5.692180335630899E-001	5.3026364E-004
2	0	0	1	1.037029973802419E+002	-9.3649358E-001	-9.3657100E-001	-5.779797262338047E-001	5.4131902E-004
2	0	0	0	1.042036973675931E+002	-9.4150048E-001	-9.4157839E-001	-5.876300851385272E-001	5.5329979E-004
2	0	0	0	1.047043973549444E+002	-9.4650733E-001	-9.4658077E-001	-5.985934204146464E-001	5.6661700E-004
2	0	0	1	1.052049973422982E+002	-9.5151353E-001	-9.5158231E-001	-6.080099964286505E-001	5.7857158E-004
2	0	0	0	1.057055973296519E+002	-9.5651919E-001	-9.5655984E-001	-6.173871818575978E-001	5.9056777E-004
2	0	0	1	1.062061973170057E+002	-9.6152556E-001	-9.6157920E-001	-6.261417122515063E-001	6.0208485E-004
2	0	0	0	1.067067973043595E+002	-9.6653152E-001	-9.6659654E-001	-6.344763070405810E-001	6.1328261E-004
2	0	0	1	1.072073972917133E+002	-9.7153747E-001	-9.7160500E-001	-6.429251242102776E-001	6.2466925E-004
2	0	0	0	1.077080972790645E+002	-9.7654450E-001	-9.7662586E-001	-6.529088513909782E-001	6.3764770E-004
2	0	0	0	1.082087972664158E+002	-9.8155129E-001	-9.8163313E-001	-6.616998389501987E-001	6.4954651E-004
2	0	0	1	1.087093972537696E+002	-9.8655760E-001	-9.8663318E-001	-6.709659898334959E-001	6.6199730E-004
2	0	0	0	1.092099972411233E+002	-9.9156350E-001	-9.9162143E-001	-6.795859349568016E-001	6.7389198E-004
2	0	0	1	1.097105972284771E+002	-9.9656945E-001	-9.9661857E-001	-6.896484590202423E-001	6.8731647E-004
2	0	0	0	1.100059972210147E+002	-9.9952179E-001	-9.9958879E-001	-6.950616627143305E-001	6.9477584E-004
2	0	0	0	1.100513972198678E+002	-9.9999726E-001	-1.0001386E+000	-7.010519206523895E-001	7.0114911E-004