EC-Lab ASCII FILE
Nb header lines : 55                          

I-V Characterization

Run on channel : 1 (SN 6514)
User : 
CE vs. WE compliance from -10 V to 10 V
Electrode connection : standard
Ewe ctrl range : min = -1.10 V, max = 0.20 V
Safety Limits :
	Do not start on E overload
Acquisition started on : 06/15/2016 18:10:45
Saved on :
	File : B125-G54-UN-G-D1GB-C7 BW 10mVs_C01.mpr
	Directory : E:\EC-Lab measurements\B125-G54-UN-G-D1GB\
	Host : 10.0.2.15
Device : VSP (SN 0295)
Address : USB
EC-Lab for windows v11.01 (software)
Internet server v11.00 (firmware)
Command interpretor v11.00 (firmware)
Electrode material : 
Initial state : 
Electrolyte : 
Comments : 
Electrode surface area : 0.001 cm²
Characteristic mass : 0.001 g
Equivalent Weight : 0.000 g/eq.
Density : 0.000 g/cm3
tR (h:m:s)          0:00:0.0000         
dER/dt (mV/h)       0.0                 
dER (mV)            0                   
dtR (s)             0.0000              
dE/dt               10.000              
dE/dt unit          mV/s                
Ei (V)              -1.000              
vs.                 Ref                 
EL (V)              0.100               
vs.                 Ref                 
record              <I>                 
dI                  0.000               
unit dI             µA                  
tI (s)              0.1000              
step percent        100                 
N                   100                 
E range min (V)     -1.100              
E range max (V)     0.200               
I Range             Auto                
I Range min         Unset               
I Range max         Unset               
I Range init        Unset               
Bandwidth           5                   

mode	ox/red	error	control changes	time/s	control/V	Ewe/V	<I>/mA	P/W
2	1	0	0	1.449999963369919E-001	-9.9912035E-001	-9.9919760E-001	-1.193720822334289E+000	1.1927630E-003
2	1	0	1	3.977999899507267E-001	-9.9659473E-001	-9.9669880E-001	-1.203276472898544E+000	1.1993042E-003
2	1	0	0	8.983999773045070E-001	-9.9158841E-001	-9.9170631E-001	-1.177200212017657E+000	1.1674368E-003
2	1	0	1	1.398999964658287E+000	-9.8658270E-001	-9.8671287E-001	-1.088155920153763E+000	1.0736975E-003
2	1	0	1	1.899799952007015E+000	-9.8157448E-001	-9.8170710E-001	-9.689727850549499E-001	9.5124746E-004
2	1	0	0	2.400399939360796E+000	-9.7656864E-001	-9.7668624E-001	-8.544906855673355E-001	8.3456928E-004
2	1	0	1	2.900999926714576E+000	-9.7156250E-001	-9.7166413E-001	-7.547444806996531E-001	7.3335815E-004
2	1	0	0	3.401599914068356E+000	-9.6655643E-001	-9.6666491E-001	-6.667723398021312E-001	6.4454542E-004
2	1	0	1	3.902199901422136E+000	-9.6155053E-001	-9.6165419E-001	-5.938354915565984E-001	5.7106436E-004
2	1	0	0	4.402799888775917E+000	-9.5654434E-001	-9.5662159E-001	-5.328500538830312E-001	5.0973584E-004
2	1	0	1	4.920999875685084E+000	-9.5136249E-001	-9.5145291E-001	-4.791215587864777E-001	4.5586159E-004
2	1	0	0	5.439199862594251E+000	-9.4618034E-001	-9.4626087E-001	-4.313626669454003E-001	4.0818160E-004
2	1	0	1	5.939799849948031E+000	-9.4117457E-001	-9.4125336E-001	-3.914622181784182E-001	3.6846512E-004
2	1	0	0	6.440399837301811E+000	-9.3616849E-001	-9.3622518E-001	-3.548705932820595E-001	3.3223879E-004
2	1	0	1	6.940999824655592E+000	-9.3116266E-001	-9.3123263E-001	-3.207884090352442E-001	2.9872864E-004
2	1	0	0	7.441599812009372E+000	-9.2615646E-001	-9.2623132E-001	-2.904138367343627E-001	2.6899041E-004
2	1	0	1	7.942199799363152E+000	-9.2115062E-001	-9.2121166E-001	-2.602004949807819E-001	2.3969973E-004
2	1	0	0	8.442799786716932E+000	-9.1614443E-001	-9.1620690E-001	-2.328106287820324E-001	2.1330270E-004
2	1	0	1	8.943399774070713E+000	-9.1113865E-001	-9.1121000E-001	-2.069458233954058E-001	1.8857111E-004
2	1	0	0	9.444099761421967E+000	-9.0613133E-001	-9.0620238E-001	-1.820986046168307E-001	1.6501819E-004
2	1	0	0	9.944799748773221E+000	-9.0112466E-001	-9.0118730E-001	-1.579501495943928E-001	1.4234267E-004
2	1	0	1	1.044539973612700E+001	-8.9611834E-001	-8.9617330E-001	-1.348005136516690E-001	1.2080462E-004
2	1	0	0	1.094599972348078E+001	-8.9111269E-001	-8.9117318E-001	-1.123425276804938E-001	1.0011665E-004
2	1	0	1	1.144659971083456E+001	-8.8610637E-001	-8.8617265E-001	-9.064434079024375E-002	8.0326536E-005
2	1	0	0	1.194719969818834E+001	-8.8110054E-001	-8.8115025E-001	-6.933377856884548E-002	6.1093473E-005
2	1	0	1	1.246529968510004E+001	-8.7591922E-001	-8.7599695E-001	-4.784766945311188E-002	4.1914413E-005
2	1	0	1	1.298349967200920E+001	-8.7073743E-001	-8.7080711E-001	-2.668317833986378E-002	2.3235902E-005
2	1	0	1	1.350169965891837E+001	-8.6555535E-001	-8.6562473E-001	-5.983596350909851E-003	5.1795491E-006
2	1	0	1	1.403729964538798E+001	-8.6019933E-001	-8.6025900E-001	1.503989765330666E-002	1.2938207E-005
2	1	0	1	1.455539963229967E+001	-8.5501838E-001	-8.5508251E-001	3.501617590991762E-002	2.9941719E-005
2	1	0	0	1.505599961965345E+001	-8.5001230E-001	-8.5007358E-001	5.391617157562156E-002	4.5832712E-005
2	1	0	0	1.555679960700218E+001	-8.4500432E-001	-8.4506345E-001	7.267516563674326E-002	6.1415129E-005
2	1	0	1	1.605739959435596E+001	-8.3999825E-001	-8.4004408E-001	9.135577492472158E-002	7.6742879E-005
2	1	0	0	1.657549958126765E+001	-8.3481747E-001	-8.3489394E-001	1.102691892061843E-001	9.2063077E-005
2	1	0	0	1.709359956817934E+001	-8.2963616E-001	-8.2972735E-001	1.285351846165503E-001	1.0664916E-004
2	1	0	1	1.759419955553312E+001	-8.2463044E-001	-8.2472086E-001	1.465672406830298E-001	1.2087706E-004
2	1	0	0	1.809479954288690E+001	-8.1962425E-001	-8.1969738E-001	1.643482472369546E-001	1.3471582E-004
2	1	0	1	1.859539953024068E+001	-8.1461847E-001	-8.1469184E-001	1.815822956035800E-001	1.4793362E-004
2	1	0	1	1.909619951758941E+001	-8.0961031E-001	-8.0968732E-001	1.983025336397124E-001	1.6056305E-004
2	1	0	0	1.959679950494319E+001	-8.0460453E-001	-8.0465639E-001	2.149653223729109E-001	1.7297322E-004
2	1	0	1	2.009739949229697E+001	-7.9959834E-001	-7.9964811E-001	2.318778829920434E-001	1.8542071E-004
2	1	0	0	2.059799947965075E+001	-7.9459244E-001	-7.9465485E-001	2.487972098532695E-001	1.9770791E-004
2	1	0	1	2.109859946700453E+001	-7.8958625E-001	-7.8963929E-001	2.651674311841594E-001	2.0938662E-004
2	1	0	0	2.159919945435831E+001	-7.8458047E-001	-7.8462559E-001	2.817377005316706E-001	2.2105861E-004
2	1	0	1	2.209979944171209E+001	-7.7957422E-001	-7.7963471E-001	2.972636449201427E-001	2.3175706E-004
2	1	0	0	2.260039942906587E+001	-7.7456838E-001	-7.7462167E-001	3.123684988875217E-001	2.4196741E-004
2	1	0	1	2.310109941641713E+001	-7.6956117E-001	-7.6961023E-001	3.287188265538505E-001	2.5298537E-004
2	1	0	1	2.360179940376838E+001	-7.6455432E-001	-7.6460534E-001	3.449091369698678E-001	2.6371938E-004
2	1	0	0	2.410239939112216E+001	-7.5954825E-001	-7.5958258E-001	3.597029747752993E-001	2.7322411E-004
2	1	0	1	2.460299937847594E+001	-7.5454211E-001	-7.5458992E-001	3.739766645480254E-001	2.8219901E-004
2	1	0	0	2.510359936582972E+001	-7.4953628E-001	-7.4957055E-001	3.885041245368650E-001	2.9121124E-004
2	1	0	1	2.560419935318350E+001	-7.4453008E-001	-7.4456340E-001	4.036064388776341E-001	3.0051058E-004
2	1	0	0	2.610479934053728E+001	-7.3952425E-001	-7.3955560E-001	4.181376525262248E-001	3.0923603E-004
2	1	0	1	2.660539932789106E+001	-7.3451805E-001	-7.3454428E-001	4.313887262348342E-001	3.1687412E-004
2	1	0	0	2.710599931524484E+001	-7.2951233E-001	-7.2954172E-001	4.456156939101312E-001	3.2509523E-004
2	1	0	1	2.760669930259610E+001	-7.2450519E-001	-7.2454691E-001	4.599869391737590E-001	3.3328211E-004
2	1	0	1	2.810739928994735E+001	-7.1949834E-001	-7.1953887E-001	4.735000333695583E-001	3.4070169E-004
2	1	0	0	2.860799927730113E+001	-7.1449226E-001	-7.1454042E-001	4.874004186020935E-001	3.4826729E-004
2	1	0	1	2.910859926465491E+001	-7.0948642E-001	-7.0952958E-001	4.999082034788436E-001	3.5469964E-004
2	1	0	0	2.960919925200869E+001	-7.0448017E-001	-7.0452803E-001	5.132524609701612E-001	3.6160075E-004
2	1	0	1	3.010979923936247E+001	-6.9947422E-001	-6.9951659E-001	5.265720402465268E-001	3.6834588E-004
2	1	0	0	3.061039922671625E+001	-6.9446802E-001	-6.9451529E-001	5.393559583080325E-001	3.7459095E-004
2	1	0	1	3.111099921407003E+001	-6.8946218E-001	-6.8949437E-001	5.513904993840661E-001	3.8018066E-004
2	1	0	0	3.161159920142381E+001	-6.8445599E-001	-6.8449771E-001	5.633973682131153E-001	3.8564421E-004
2	1	0	1	3.211229918877507E+001	-6.7944914E-001	-6.7950469E-001	5.748805098126102E-001	3.9063400E-004
2	1	0	1	3.261299917612632E+001	-6.7444205E-001	-6.7449278E-001	5.861583704495104E-001	3.9535959E-004
2	1	0	0	3.311359916348010E+001	-6.6943610E-001	-6.6948640E-001	5.983644480619947E-001	4.0059685E-004
2	1	0	1	3.361419915083388E+001	-6.6443002E-001	-6.6446435E-001	6.103158667186621E-001	4.0553315E-004
2	1	0	0	3.411479913818766E+001	-6.5942395E-001	-6.5947580E-001	6.210176076635516E-001	4.0954608E-004
2	1	0	1	3.461539912554144E+001	-6.5441805E-001	-6.5446758E-001	6.320222007895979E-001	4.1363804E-004
2	1	0	0	3.511599911289522E+001	-6.4941198E-001	-6.4947301E-001	6.440140903497600E-001	4.1826977E-004
2	1	0	1	3.561659910024900E+001	-6.4440608E-001	-6.4447373E-001	6.528021142870237E-001	4.2071383E-004
2	1	0	0	3.611719908760278E+001	-6.3940001E-001	-6.3946503E-001	6.608762145774091E-001	4.2260723E-004
2	1	0	0	3.661799907495151E+001	-6.3439214E-001	-6.3447011E-001	6.730145556094840E-001	4.2700762E-004
2	1	0	1	3.711859906230529E+001	-6.2938607E-001	-6.2947130E-001	6.838655229996178E-001	4.3047371E-004
2	1	0	0	3.761919904965907E+001	-6.2437999E-001	-6.2445468E-001	6.932213596960448E-001	4.3288531E-004
2	1	0	1	3.811979903701285E+001	-6.1937392E-001	-6.1946696E-001	7.010324742922718E-001	4.3426646E-004
2	1	0	0	3.862039902436663E+001	-6.1436802E-001	-6.1444259E-001	7.116679420173790E-001	4.3727909E-004
2	1	0	1	3.912099901172041E+001	-6.0936189E-001	-6.0944617E-001	7.206529581694188E-001	4.3919918E-004
2	1	0	0	3.962159899907419E+001	-6.0435593E-001	-6.0444427E-001	7.289307552649458E-001	4.4059803E-004
2	1	0	1	4.012219898642797E+001	-5.9934986E-001	-5.9941626E-001	7.367481363811610E-001	4.4161882E-004
2	1	0	0	4.062289897377923E+001	-5.9434295E-001	-5.9441674E-001	7.470149606756706E-001	4.4403819E-004
2	1	0	0	4.112359896113048E+001	-5.8933574E-001	-5.8940256E-001	7.546266756180344E-001	4.4477888E-004
2	1	0	1	4.162419894848426E+001	-5.8432990E-001	-5.8439738E-001	7.613746323950075E-001	4.4494533E-004
2	1	0	0	4.212479893583804E+001	-5.7932377E-001	-5.7938987E-001	7.688550446518558E-001	4.4546684E-004
2	1	0	1	4.262539892319182E+001	-5.7431775E-001	-5.7439095E-001	7.787206395568429E-001	4.4729008E-004
2	1	0	0	4.312599891054560E+001	-5.6931174E-001	-5.6938708E-001	7.858753481656855E-001	4.4746726E-004
2	1	0	1	4.362659889789938E+001	-5.6430566E-001	-5.6437182E-001	7.934225069699563E-001	4.4778531E-004
2	1	0	0	4.412719888525316E+001	-5.5929983E-001	-5.5938131E-001	8.004047057409949E-001	4.4773144E-004
2	1	0	1	4.462779887260695E+001	-5.5429375E-001	-5.5439103E-001	8.060079624154373E-001	4.4684359E-004
2	1	0	0	4.512849885995820E+001	-5.4928678E-001	-5.4936481E-001	8.132674238661437E-001	4.4678050E-004
2	1	0	0	4.562919884730945E+001	-5.4427981E-001	-5.4435593E-001	8.197536435645318E-001	4.4623777E-004
2	1	0	1	4.612979883466323E+001	-5.3927380E-001	-5.3934443E-001	8.270893411557196E-001	4.4608602E-004
2	1	0	0	4.663039882201701E+001	-5.3426772E-001	-5.3434634E-001	8.323364120200960E-001	4.4475592E-004
2	1	0	1	4.713099880937079E+001	-5.2926171E-001	-5.2932453E-001	8.372316847214822E-001	4.4316726E-004
2	1	0	0	4.763159879672457E+001	-5.2425569E-001	-5.2433336E-001	8.435683379820667E-001	4.4231102E-004
2	1	0	1	4.813219878407835E+001	-5.1924968E-001	-5.1932037E-001	8.496130941071751E-001	4.4122137E-004
2	1	0	0	4.863279877143214E+001	-5.1424366E-001	-5.1432365E-001	8.546521785743000E-001	4.3956784E-004
2	1	0	1	4.913339875878592E+001	-5.0923771E-001	-5.0929290E-001	8.622531077045839E-001	4.3913937E-004
2	1	0	1	4.963419874613464E+001	-5.0422972E-001	-5.0428820E-001	8.679743109081919E-001	4.3770921E-004
2	1	0	0	5.013479873348842E+001	-4.9922362E-001	-4.9929228E-001	8.717168113473814E-001	4.3524147E-004
2	1	0	1	5.063539872084220E+001	-4.9421757E-001	-4.9428013E-001	8.742236539648456E-001	4.3211138E-004
2	1	0	0	5.113599870819598E+001	-4.8921153E-001	-4.8926666E-001	8.797534995399481E-001	4.3043407E-004
2	1	0	1	5.163659869554976E+001	-4.8420545E-001	-4.8426524E-001	8.866779378453540E-001	4.2938729E-004
2	1	0	0	5.213719868290355E+001	-4.7919953E-001	-4.7925550E-001	8.929211565876338E-001	4.2793737E-004
2	1	0	1	5.263779867025733E+001	-4.7419354E-001	-4.7425047E-001	8.966688598959234E-001	4.2524561E-004
2	1	0	0	5.313839865761111E+001	-4.6918753E-001	-4.6923056E-001	9.007457053911985E-001	4.2265741E-004
2	1	0	1	5.363899864496489E+001	-4.6418151E-001	-4.6423674E-001	9.045888580887862E-001	4.1994339E-004
2	1	0	1	5.413979863231361E+001	-4.5917359E-001	-4.5923817E-001	9.068922546479854E-001	4.1647954E-004
2	1	0	0	5.464039861966739E+001	-4.5416760E-001	-4.5421487E-001	9.145374646458482E-001	4.1539653E-004
2	1	0	1	5.514099860702117E+001	-4.4916162E-001	-4.4920111E-001	9.184559467329105E-001	4.1257142E-004
2	1	0	0	5.564159859437495E+001	-4.4415557E-001	-4.4420120E-001	9.193269013980440E-001	4.0836612E-004
2	1	0	1	5.614219858172874E+001	-4.3914956E-001	-4.3918538E-001	9.237635086353522E-001	4.0570344E-004
2	1	0	0	5.664279856908252E+001	-4.3414360E-001	-4.3419102E-001	9.301955293354833E-001	4.0388256E-004
2	1	0	1	5.714339855643630E+001	-4.2913759E-001	-4.2917565E-001	9.319655581164366E-001	3.9997691E-004
2	1	0	0	5.764399854379008E+001	-4.2413154E-001	-4.2418152E-001	9.363477534091160E-001	3.9718140E-004
2	1	0	1	5.814469853114133E+001	-4.1912448E-001	-4.1916913E-001	9.377301171046977E-001	3.9306752E-004
2	1	0	1	5.864539851849258E+001	-4.1411749E-001	-4.1416049E-001	9.397276771320096E-001	3.8919807E-004
2	1	0	0	5.914599850584636E+001	-4.0911147E-001	-4.0915626E-001	9.454910572561683E-001	3.8685359E-004
2	1	0	1	5.964659849320014E+001	-4.0410548E-001	-4.0415710E-001	9.487091769402296E-001	3.8342754E-004
2	1	0	0	6.014719848055393E+001	-3.9909938E-001	-3.9915842E-001	9.507527737525123E-001	3.7950097E-004
2	1	0	1	6.064779846790771E+001	-3.9409339E-001	-3.9414275E-001	9.541176711961601E-001	3.7605857E-004
2	1	0	0	6.114839845526149E+001	-3.8908738E-001	-3.8913518E-001	9.548780123967884E-001	3.7157664E-004
2	1	0	1	6.164899844261527E+001	-3.8408139E-001	-3.8412809E-001	9.581607869132469E-001	3.6805647E-004
2	1	0	0	6.214959842996905E+001	-3.7907541E-001	-3.7912288E-001	9.633931602733341E-001	3.6524440E-004
2	1	0	1	6.265029841732030E+001	-3.7406847E-001	-3.7411118E-001	9.677486631891341E-001	3.6204560E-004
2	1	0	1	6.315099840467155E+001	-3.6906144E-001	-3.6910653E-001	9.680433273022561E-001	3.5731110E-004
2	1	0	0	6.365159839202533E+001	-3.6405545E-001	-3.6409721E-001	9.688660425971038E-001	3.5276142E-004
2	1	0	1	6.415219837937912E+001	-3.5904947E-001	-3.5909390E-001	9.706109164351674E-001	3.4854046E-004
2	1	0	0	6.465279836673290E+001	-3.5404342E-001	-3.5408905E-001	9.751108583916803E-001	3.4527609E-004
2	1	0	1	6.515339835408668E+001	-3.4903741E-001	-3.4908849E-001	9.773070022097574E-001	3.4116663E-004
2	1	0	0	6.565399834144046E+001	-3.4403145E-001	-3.4406093E-001	9.804730083677562E-001	3.3734244E-004
2	1	0	1	6.615459832879424E+001	-3.3902535E-001	-3.3904925E-001	9.811008234744971E-001	3.3264150E-004
2	1	0	0	6.665519831614802E+001	-3.3401939E-001	-3.3404073E-001	9.835032494487326E-001	3.2853015E-004
2	1	0	0	6.715599830349674E+001	-3.2901141E-001	-3.2903340E-001	9.873212611015647E-001	3.2486167E-004
2	1	0	1	6.765659829085052E+001	-3.2400540E-001	-3.2404450E-001	9.879678134886483E-001	3.2014554E-004
2	1	0	0	6.815719827820431E+001	-3.1899932E-001	-3.1905308E-001	9.878089506965857E-001	3.1516349E-004
2	1	0	1	6.865779826555809E+001	-3.1399328E-001	-3.1404883E-001	9.917987726072042E-001	3.1147324E-004
2	1	0	0	6.915839825291187E+001	-3.0898726E-001	-3.0903685E-001	9.935256473455052E-001	3.0703604E-004
2	1	0	1	6.965899824026565E+001	-3.0398124E-001	-3.0402425E-001	9.966310104549638E-001	3.0300001E-004
2	1	0	0	7.015959822761943E+001	-2.9897526E-001	-2.9901341E-001	9.963254033079121E-001	2.9791467E-004
2	1	0	1	7.066019821497321E+001	-2.9396918E-001	-2.9401943E-001	9.968287259626010E-001	2.9308701E-004
2	1	0	0	7.116089820232446E+001	-2.8896222E-001	-2.8900173E-001	9.988858782074930E-001	2.8867976E-004
2	1	0	0	7.166159818967571E+001	-2.8395525E-001	-2.8399205E-001	1.004205823830492E+000	2.8518648E-004
2	1	0	1	7.216219817702950E+001	-2.7894926E-001	-2.7899325E-001	1.003328908946569E+000	2.7992198E-004
2	1	0	0	7.266279816438328E+001	-2.7394319E-001	-2.7397710E-001	1.004281550544441E+000	2.7515015E-004
2	1	0	1	7.316339815173706E+001	-2.6893720E-001	-2.6897785E-001	1.004454990409581E+000	2.7017616E-004
2	1	0	0	7.366399813909084E+001	-2.6393116E-001	-2.6397792E-001	1.007126913875160E+000	2.6585927E-004
2	1	0	1	7.416459812644462E+001	-2.5892517E-001	-2.5898421E-001	1.010152386140721E+000	2.6161352E-004
2	1	0	0	7.466519811379840E+001	-2.5391915E-001	-2.5395733E-001	1.010778502768765E+000	2.5669462E-004
2	1	0	1	7.516579810115218E+001	-2.4891311E-001	-2.4895877E-001	1.010001341889840E+000	2.5144868E-004
2	1	0	0	7.566649808850343E+001	-2.4390613E-001	-2.4397378E-001	1.013095891126319E+000	2.4716882E-004
2	1	0	0	7.616719807585469E+001	-2.3889917E-001	-2.3897807E-001	1.015195134694770E+000	2.4260937E-004
2	1	0	1	7.666779806320847E+001	-2.3389313E-001	-2.3396607E-001	1.014711267442153E+000	2.3740801E-004
2	1	0	0	7.716839805056225E+001	-2.2888710E-001	-2.2896646E-001	1.014654799546900E+000	2.3232192E-004
2	1	0	1	7.768649803747394E+001	-2.2370610E-001	-2.2380579E-001	1.019323364626658E+000	2.2813046E-004
2	1	0	1	7.820459802438563E+001	-2.1852505E-001	-2.1863058E-001	1.020018825430900E+000	2.2300732E-004
2	1	0	0	7.870519801173941E+001	-2.1351908E-001	-2.1362662E-001	1.021043552171665E+000	2.1812209E-004
2	1	0	1	7.920589799909067E+001	-2.0851210E-001	-2.0862247E-001	1.021162406161890E+000	2.1303742E-004
2	1	0	1	7.970659798644192E+001	-2.0350511E-001	-2.0362036E-001	1.021686511939738E+000	2.0803617E-004
2	1	0	0	8.020719797379570E+001	-1.9849910E-001	-1.9861814E-001	1.022328524576110E+000	2.0305299E-004
2	1	0	1	8.070779796114948E+001	-1.9349305E-001	-1.9359189E-001	1.021922713937896E+000	1.9783595E-004
2	1	0	0	8.120839794850326E+001	-1.8848704E-001	-1.8858281E-001	1.025892278899248E+000	1.9346565E-004
2	1	0	1	8.170899793585704E+001	-1.8348105E-001	-1.8358883E-001	1.024533314193718E+000	1.8809288E-004
2	1	0	0	8.220959792321082E+001	-1.7847499E-001	-1.7856979E-001	1.025300244662866E+000	1.8308766E-004
2	1	0	1	8.271019791056460E+001	-1.7346898E-001	-1.7355494E-001	1.027323549546562E+000	1.7829708E-004
2	1	0	0	8.321079789791838E+001	-1.6846298E-001	-1.6855232E-001	1.025801290532589E+000	1.7290119E-004
2	1	0	0	8.371159788526711E+001	-1.6345505E-001	-1.6354394E-001	1.029764053355729E+000	1.6841167E-004
2	1	0	1	8.421219787262089E+001	-1.5844902E-001	-1.5851629E-001	1.029475259216252E+000	1.6318860E-004
2	1	0	0	8.471279785997467E+001	-1.5344301E-001	-1.5352556E-001	1.030041047788515E+000	1.5813763E-004
2	1	0	1	8.521339784732845E+001	-1.4843698E-001	-1.4851585E-001	1.029122935388805E+000	1.5284106E-004
2	1	0	0	8.571399783468223E+001	-1.4343096E-001	-1.4350441E-001	1.031293826857699E+000	1.4799522E-004
2	1	0	1	8.621459782203601E+001	-1.3842493E-001	-1.3849324E-001	1.031678571025932E+000	1.4288051E-004
2	1	0	0	8.671519780938979E+001	-1.3341893E-001	-1.3347016E-001	1.030627820337665E+000	1.3755806E-004
2	1	0	1	8.721579779674357E+001	-1.2841289E-001	-1.2848040E-001	1.034087153491658E+000	1.3285993E-004
2	1	0	0	8.771639778409735E+001	-1.2340685E-001	-1.2346352E-001	1.034643957922192E+000	1.2774079E-004
2	1	0	0	8.821719777144608E+001	-1.1839888E-001	-1.1845060E-001	1.032661125499995E+000	1.2231932E-004
2	1	0	1	8.871779775879986E+001	-1.1339288E-001	-1.1345670E-001	1.034981915646259E+000	1.1742564E-004
2	1	0	0	8.921839774615364E+001	-1.0838689E-001	-1.0844918E-001	1.034433465047934E+000	1.1218346E-004
2	1	0	1	8.971899773350742E+001	-1.0338087E-001	-1.0343869E-001	1.032821835699384E+000	1.0683374E-004
2	1	0	0	9.021959772086120E+001	-9.8374844E-002	-9.8425575E-002	1.036087339517813E+000	1.0197749E-004
2	1	0	1	9.072019770821498E+001	-9.3368836E-002	-9.3423374E-002	1.036628287832862E+000	9.6845310E-005
2	1	0	0	9.122079769556876E+001	-8.8362806E-002	-8.8439927E-002	1.036172747192240E+000	9.1639042E-005
2	1	0	1	9.172139768292254E+001	-8.3356798E-002	-8.3423346E-002	1.038957781664831E+000	8.6673332E-005
2	1	0	0	9.222209767027380E+001	-7.8349814E-002	-7.8407899E-002	1.041109585074768E+000	8.1631217E-005
2	1	0	0	9.272279765762505E+001	-7.3342793E-002	-7.3400579E-002	1.040258334926104E+000	7.6355565E-005
2	1	0	1	9.322339764497883E+001	-6.8336800E-002	-6.8404026E-002	1.038539250711604E+000	7.1040267E-005
2	1	0	0	9.372399763233261E+001	-6.3330799E-002	-6.3401751E-002	1.038732173446234E+000	6.5857435E-005
2	1	0	1	9.422459761968639E+001	-5.8324762E-002	-5.8390740E-002	1.041656226991437E+000	6.0823077E-005
2	1	0	0	9.472519760704017E+001	-5.3318754E-002	-5.3391434E-002	1.040901652820105E+000	5.5575230E-005
2	1	0	1	9.522579759439395E+001	-4.8312731E-002	-4.8388179E-002	1.042158526525867E+000	5.0428152E-005
2	1	0	0	9.572639758174773E+001	-4.3306701E-002	-4.3386213E-002	1.043684956513901E+000	4.5281537E-005
2	1	0	1	9.622699756910151E+001	-3.8300693E-002	-3.8370453E-002	1.040941368716417E+000	3.9941391E-005
2	1	0	0	9.672769755645277E+001	-3.3293746E-002	-3.3360485E-002	1.042249178689397E+000	3.4769939E-005
2	1	0	0	9.722839754380402E+001	-2.8286744E-002	-2.8352240E-002	1.041747992762538E+000	2.9535890E-005
2	1	0	1	9.772899753115780E+001	-2.3280710E-002	-2.3345506E-002	1.043913354118749E+000	2.4370685E-005
2	1	0	0	9.822959751851158E+001	-1.8274711E-002	-1.8345393E-002	1.044840340295918E+000	1.9168006E-005
2	1	0	1	9.873019750586536E+001	-1.3268692E-002	-1.3339282E-002	1.043150670732326E+000	1.3914881E-005
2	1	0	0	9.923079749321914E+001	-8.2626548E-003	-8.3531775E-003	1.043630166126594E+000	8.7176277E-006
2	1	0	1	9.973139748057292E+001	-3.2566581E-003	-3.3425344E-003	1.045143458306585E+000	3.4934280E-006
2	1	0	0	1.002319974679267E+002	1.7493343E-003	1.6592264E-003	1.045896388881987E+000	1.7353789E-006
2	1	0	1	1.007325974552805E+002	6.7553502E-003	6.6561201E-003	1.045682485218766E+000	6.9601883E-006
2	1	0	1	1.012333974426292E+002	1.1763285E-002	1.1674941E-002	1.046584354965200E+000	1.2218810E-005
2	1	0	0	1.017339974299830E+002	1.6769299E-002	1.6695032E-002	1.046316108017425E+000	1.7468281E-005
2	1	0	1	1.022345974173368E+002	2.1775290E-002	2.1698201E-002	1.047095663473407E+000	2.2720093E-005
2	1	0	0	1.027351974046906E+002	2.6781270E-002	2.6706984E-002	1.049170388562088E+000	2.8020177E-005
2	1	0	1	1.032357973920443E+002	3.1787250E-002	3.1712674E-002	1.047303544592632E+000	3.3212797E-005
2	1	0	0	1.037363973793981E+002	3.6793265E-002	3.6706746E-002	1.047895155851425E+000	3.8464819E-005
2	1	0	1	1.042369973667519E+002	4.1799255E-002	4.1728519E-002	1.047080813775469E+000	4.3693133E-005
2	1	0	0	1.047375973541057E+002	4.6805266E-002	4.6714630E-002	1.047607904615050E+000	4.8938615E-005
2	1	0	1	1.052382973414569E+002	5.1812258E-002	5.1730942E-002	1.049250686646488E+000	5.4278727E-005
2	1	0	1	1.057389973288082E+002	5.6819182E-002	5.6738898E-002	1.050397349411039E+000	5.9598387E-005
2	1	0	0	1.062395973161620E+002	6.1825175E-002	6.1747830E-002	1.048671885450954E+000	6.4753214E-005
2	1	0	1	1.067401973035157E+002	6.6831194E-002	6.6762336E-002	1.050895473153830E+000	7.0160233E-005
2	1	0	0	1.072407972908695E+002	7.1837157E-002	7.1756601E-002	1.051188333064790E+000	7.5429700E-005
2	1	0	1	1.077413972782233E+002	7.6843180E-002	7.6792300E-002	1.050303477472566E+000	8.0655220E-005
2	1	0	0	1.082419972655771E+002	8.1849173E-002	8.1779368E-002	1.049527254391140E+000	8.5829677E-005
2	1	0	1	1.087425972529309E+002	8.6855195E-002	8.6786613E-002	1.051382952560470E+000	9.1245965E-005
2	1	0	0	1.092431972402846E+002	9.1861181E-002	9.1788135E-002	1.052777541215173E+000	9.6632488E-005
2	1	0	1	1.097438972276359E+002	9.6868128E-002	9.6811593E-002	1.051821093550394E+000	1.0182847E-004
2	1	0	1	1.100242972205524E+002	9.9671803E-002	9.9628687E-002	1.049959658695894E+000	1.0460610E-004
2	1	0	0	1.100545972197870E+002	9.9997252E-002	9.9898703E-002	1.060021170548031E+000	1.0589474E-004