EC-Lab ASCII FILE
Nb header lines : 55                          

I-V Characterization

Run on channel : 1 (SN 6514)
User : 
CE vs. WE compliance from -10 V to 10 V
Electrode connection : standard
Ewe ctrl range : min = -1.10 V, max = 0.20 V
Safety Limits :
	Do not start on E overload
Acquisition started on : 06/15/2016 19:17:50
Saved on :
	File : B125-G54-UN-G-D1GB-C15 BW 10mVs dark_C01.mpr
	Directory : E:\EC-Lab measurements\B125-G54-UN-G-D1GB\
	Host : 10.0.2.15
Device : VSP (SN 0295)
Address : USB
EC-Lab for windows v11.01 (software)
Internet server v11.00 (firmware)
Command interpretor v11.00 (firmware)
Electrode material : 
Initial state : 
Electrolyte : 
Comments : 
Electrode surface area : 0.001 cm²
Characteristic mass : 0.001 g
Equivalent Weight : 0.000 g/eq.
Density : 0.000 g/cm3
tR (h:m:s)          0:00:0.0000         
dER/dt (mV/h)       0.0                 
dER (mV)            0                   
dtR (s)             0.0000              
dE/dt               10.000              
dE/dt unit          mV/s                
Ei (V)              -1.000              
vs.                 Ref                 
EL (V)              0.100               
vs.                 Ref                 
record              <I>                 
dI                  0.000               
unit dI             µA                  
tI (s)              0.1000              
step percent        100                 
N                   100                 
E range min (V)     -1.100              
E range max (V)     0.200               
I Range             Auto                
I Range min         Unset               
I Range max         Unset               
I Range init        Unset               
Bandwidth           5                   

mode	ox/red	error	control changes	time/s	control/V	Ewe/V	<I>/mA	P/W
2	1	0	0	1.149999970948556E-001	-9.9942070E-001	-9.9933130E-001	-2.224249106645584E-001	2.2227617E-004
2	1	0	1	3.677999907085905E-001	-9.9689472E-001	-9.9691260E-001	-2.510600639514387E-001	2.5028494E-004
2	1	0	0	8.683999780623708E-001	-9.9188846E-001	-9.9191433E-001	-2.728905170478759E-001	2.7068402E-004
2	1	0	1	1.368999965416151E+000	-9.8688263E-001	-9.8694372E-001	-2.771257524789181E-001	2.7350752E-004
2	1	0	0	1.869599952769931E+000	-9.8187643E-001	-9.8192263E-001	-2.759431486582580E-001	2.7095483E-004
2	1	0	1	2.370299940121186E+000	-9.7686952E-001	-9.7690177E-001	-2.729792743066453E-001	2.6667395E-004
2	1	0	1	2.870999927472440E+000	-9.7186255E-001	-9.7189599E-001	-2.692960271731168E-001	2.6172772E-004
2	1	0	0	3.371599914826220E+000	-9.6685642E-001	-9.6689731E-001	-2.652681378032735E-001	2.5648705E-004
2	1	0	1	3.872199902180000E+000	-9.6185058E-001	-9.6188837E-001	-2.611474267982210E-001	2.5119467E-004
2	1	0	0	4.372799889533781E+000	-9.5684433E-001	-9.5685679E-001	-2.572430473662743E-001	2.4614474E-004
2	1	0	1	4.873399876887561E+000	-9.5183867E-001	-9.5188868E-001	-2.530896315059175E-001	2.4091316E-004
2	1	0	0	5.373999864241341E+000	-9.4683230E-001	-9.4689137E-001	-2.487858038293433E-001	2.3557313E-004
2	1	0	1	5.874599851595121E+000	-9.4182670E-001	-9.4186968E-001	-2.445157702957883E-001	2.3030199E-004
2	1	0	0	6.375199838948902E+000	-9.3682039E-001	-9.3686122E-001	-2.401570710272614E-001	2.2499384E-004
2	1	0	0	6.875999826297630E+000	-9.3181270E-001	-9.3187380E-001	-2.357947537622646E-001	2.1973095E-004
2	1	0	1	7.376599813651410E+000	-9.2680651E-001	-9.2686135E-001	-2.314374734742478E-001	2.1451045E-004
2	1	0	0	7.877199801005190E+000	-9.2180073E-001	-9.2184544E-001	-2.270413672652445E-001	2.0929705E-004
2	1	0	1	8.377799788358971E+000	-9.1679442E-001	-9.1683036E-001	-2.226747446199899E-001	2.0415496E-004
2	1	0	0	8.878399775712751E+000	-9.1178864E-001	-9.1183639E-001	-2.183450113125698E-001	1.9909492E-004
2	1	0	1	9.378999763066531E+000	-9.0678239E-001	-9.0681726E-001	-2.137676228542471E-001	1.9384817E-004
2	1	0	0	9.879599750420311E+000	-9.0177661E-001	-9.0182447E-001	-2.096604472596524E-001	1.8907692E-004
2	1	0	1	1.038019973777409E+001	-8.9677036E-001	-8.9682055E-001	-2.053596840874183E-001	1.8417079E-004
2	1	0	0	1.088079972512787E+001	-8.9176452E-001	-8.9181131E-001	-2.009384575550137E-001	1.7919920E-004
2	1	0	0	1.138159971247660E+001	-8.8675642E-001	-8.8680619E-001	-1.966223197912647E-001	1.7436589E-004
2	1	0	1	1.188219969983038E+001	-8.8175035E-001	-8.8179034E-001	-1.922875408367308E-001	1.6955730E-004
2	1	0	0	1.238279968718416E+001	-8.7674445E-001	-8.7678534E-001	-1.881629581937916E-001	1.6497853E-004
2	1	0	1	1.288339967453794E+001	-8.7173826E-001	-8.7179744E-001	-1.839110770128674E-001	1.6033321E-004
2	1	0	0	1.338399966189172E+001	-8.6673254E-001	-8.6678994E-001	-1.794909544602749E-001	1.5558096E-004
2	1	0	1	1.388459964924550E+001	-8.6172628E-001	-8.6177778E-001	-1.753196003562532E-001	1.5108654E-004
2	1	0	0	1.438519963659928E+001	-8.5672057E-001	-8.5676599E-001	-1.713030969197196E-001	1.4676667E-004
2	1	0	1	1.488579962395306E+001	-8.5171431E-001	-8.5178441E-001	-1.674111734285524E-001	1.4259823E-004
2	1	0	0	1.538649961130432E+001	-8.4670752E-001	-8.4676045E-001	-1.634235338017502E-001	1.3838058E-004
2	1	0	0	1.588719959865557E+001	-8.4170043E-001	-8.4174353E-001	-1.594955666988422E-001	1.3425435E-004
2	1	0	1	1.638779958600935E+001	-8.3669448E-001	-8.3675510E-001	-1.554730757665967E-001	1.3009289E-004
2	1	0	0	1.688839957336313E+001	-8.3168828E-001	-8.3175576E-001	-1.515993487154127E-001	1.2609363E-004
2	1	0	1	1.738899956071691E+001	-8.2668245E-001	-8.2675213E-001	-1.478650761984541E-001	1.2224777E-004
2	1	0	0	1.788959954807069E+001	-8.2167625E-001	-8.2173604E-001	-1.441917896894365E-001	1.1848759E-004
2	1	0	1	1.839019953542447E+001	-8.1667042E-001	-8.1673342E-001	-1.404559317774672E-001	1.1471505E-004
2	1	0	0	1.889079952277825E+001	-8.1166422E-001	-8.1172198E-001	-1.367626479254168E-001	1.1101325E-004
2	1	0	1	1.939139951013203E+001	-8.0665845E-001	-8.0670822E-001	-1.332381374314726E-001	1.0748430E-004
2	1	0	0	1.989209949748329E+001	-8.0165130E-001	-8.0167902E-001	-1.297860661867243E-001	1.0404677E-004
2	1	0	0	2.039279948483454E+001	-7.9664421E-001	-7.9669768E-001	-1.263499617982848E-001	1.0066272E-004
2	1	0	1	2.089339947218832E+001	-7.9163831E-001	-7.9168749E-001	-1.230433386854741E-001	9.7411874E-005
2	1	0	0	2.139399945954210E+001	-7.8663218E-001	-7.8667277E-001	-1.196564881532194E-001	9.4130504E-005
2	1	0	1	2.189459944689588E+001	-7.8162634E-001	-7.8166419E-001	-1.163257081030341E-001	9.0927642E-005
2	1	0	0	2.239519943424966E+001	-7.7662009E-001	-7.7666080E-001	-1.130343905709338E-001	8.7789384E-005
2	1	0	1	2.289579942160344E+001	-7.7161437E-001	-7.7165329E-001	-1.097869272462348E-001	8.4717445E-005
2	1	0	0	2.339639940895722E+001	-7.6660812E-001	-7.6665157E-001	-1.066901739686577E-001	8.1794191E-005
2	1	0	1	2.389699939631100E+001	-7.6160240E-001	-7.6163107E-001	-1.035779795369067E-001	7.8888210E-005
2	1	0	0	2.439769938366226E+001	-7.5659519E-001	-7.5662339E-001	-1.006099241385972E-001	7.6123819E-005
2	1	0	0	2.489839937101351E+001	-7.5158834E-001	-7.5160527E-001	-9.765790576497846E-002	7.3400195E-005
2	1	0	1	2.539899935836729E+001	-7.4658227E-001	-7.4661714E-001	-9.470394731371878E-002	7.0707589E-005
2	1	0	0	2.589959934572107E+001	-7.4157631E-001	-7.4158955E-001	-9.188686484263009E-002	6.8142341E-005
2	1	0	1	2.640019933307485E+001	-7.3657024E-001	-7.3658699E-001	-8.912581696553068E-002	6.5648914E-005
2	1	0	0	2.690079932042863E+001	-7.3156434E-001	-7.3159534E-001	-8.649934435160667E-002	6.3282518E-005
2	1	0	1	2.740139930778241E+001	-7.2655815E-001	-7.2657681E-001	-8.382370333793326E-002	6.0904360E-005
2	1	0	0	2.790199929513619E+001	-7.2155225E-001	-7.2158390E-001	-8.119965454584788E-002	5.8592363E-005
2	1	0	1	2.840269928248745E+001	-7.1654510E-001	-7.1657908E-001	-7.869037799120027E-002	5.6387878E-005
2	1	0	1	2.890339926983870E+001	-7.1153820E-001	-7.1157593E-001	-7.619811204531635E-002	5.4220742E-005
2	1	0	0	2.940399925719248E+001	-7.0653212E-001	-7.0656294E-001	-7.369510545489022E-002	5.2070231E-005
2	1	0	1	2.990459924454626E+001	-7.0152605E-001	-7.0156282E-001	-7.130778297232721E-002	5.0026891E-005
2	1	0	0	3.040519923190004E+001	-6.9652009E-001	-6.9656992E-001	-6.903299746929903E-002	4.8086309E-005
2	1	0	1	3.090579921925382E+001	-6.9151396E-001	-6.9154775E-001	-6.670088372612731E-002	4.6126846E-005
2	1	0	0	3.140639920660760E+001	-6.8650818E-001	-6.8653828E-001	-6.448016546116708E-002	4.4268101E-005
2	1	0	1	3.190699919396138E+001	-6.8150204E-001	-6.8154681E-001	-6.240253198705931E-002	4.2530246E-005
2	1	0	0	3.240759918131516E+001	-6.7649621E-001	-6.7653853E-001	-6.023404688261869E-002	4.0750652E-005
2	1	0	1	3.290829916866642E+001	-6.7148900E-001	-6.7152929E-001	-5.816119273838294E-002	3.9056944E-005
2	1	0	1	3.340899915601767E+001	-6.6648215E-001	-6.6651100E-001	-5.617194655939664E-002	3.7439218E-005
2	1	0	0	3.390959914337145E+001	-6.6147608E-001	-6.6151124E-001	-5.422548553169271E-002	3.5870769E-005
2	1	0	1	3.441019913072523E+001	-6.5647018E-001	-6.5650582E-001	-5.227477159531096E-002	3.4318691E-005
2	1	0	0	3.491079911807901E+001	-6.5146399E-001	-6.5150565E-001	-5.049951677350534E-002	3.2900720E-005
2	1	0	1	3.542889910499071E+001	-6.4628297E-001	-6.4631641E-001	-4.862560641341218E-002	3.1427528E-005
2	1	0	1	3.594699909190240E+001	-6.4110202E-001	-6.4114553E-001	-4.683660971345927E-002	3.0029083E-005
2	1	0	0	3.644769907925365E+001	-6.3609511E-001	-6.3615966E-001	-4.513842061239437E-002	2.8715242E-005
2	1	0	0	3.694839906660491E+001	-6.3108796E-001	-6.3115859E-001	-4.344843913899132E-002	2.7422855E-005
2	1	0	1	3.744899905395869E+001	-6.2608206E-001	-6.2615573E-001	-4.186763067678068E-002	2.6215657E-005
2	1	0	0	3.794959904131247E+001	-6.2107581E-001	-6.2114596E-001	-4.028611447485519E-002	2.5023557E-005
2	1	0	1	3.845019902866625E+001	-6.1606991E-001	-6.1614251E-001	-3.876408778799334E-002	2.3884202E-005
2	1	0	0	3.895079901602003E+001	-6.1106396E-001	-6.1112958E-001	-3.728307655578034E-002	2.2784790E-005
2	1	0	1	3.945139900337381E+001	-6.0605770E-001	-6.0611999E-001	-3.585365582620192E-002	2.1731617E-005
2	1	0	0	3.995199899072759E+001	-6.0105181E-001	-6.0111308E-001	-3.446457973184486E-002	2.0717111E-005
2	1	0	1	4.045259897808137E+001	-5.9604579E-001	-5.9611338E-001	-3.312218506100989E-002	1.9744577E-005
2	1	0	1	4.095339896543010E+001	-5.9103799E-001	-5.9109783E-001	-3.183673123734898E-002	1.8818622E-005
2	1	0	0	4.145399895278388E+001	-5.8603185E-001	-5.8608425E-001	-3.059833770472603E-002	1.7933204E-005
2	1	0	1	4.195459894013766E+001	-5.8102596E-001	-5.8108455E-001	-2.936383484899335E-002	1.7062870E-005
2	1	0	0	4.245519892749144E+001	-5.7601994E-001	-5.7607645E-001	-2.822849404593208E-002	1.6261771E-005
2	1	0	1	4.295579891484522E+001	-5.7101399E-001	-5.7106251E-001	-2.711545336436466E-002	1.5484618E-005
2	1	0	0	4.345639890219900E+001	-5.6600773E-001	-5.6605691E-001	-2.601821505715612E-002	1.4727791E-005
2	1	0	1	4.395699888955278E+001	-5.6100184E-001	-5.6106609E-001	-2.496163105459476E-002	1.4005125E-005
2	1	0	0	4.445759887690656E+001	-5.5599576E-001	-5.5606824E-001	-2.394708035202500E-002	1.3316211E-005
2	1	0	1	4.495819886426034E+001	-5.5098975E-001	-5.5104750E-001	-2.293459907405976E-002	1.2638054E-005
2	1	0	1	4.545899885160907E+001	-5.4598176E-001	-5.4603469E-001	-2.197905631391247E-002	1.2001327E-005
2	1	0	0	4.595959883896285E+001	-5.4097581E-001	-5.4103082E-001	-2.101811464038805E-002	1.1371448E-005
2	1	0	1	4.646019882631663E+001	-5.3596973E-001	-5.3602690E-001	-2.009937164788093E-002	1.0773804E-005
2	1	0	0	4.696079881367041E+001	-5.3096366E-001	-5.3101885E-001	-1.918157125043457E-002	1.0185776E-005
2	1	0	1	4.746139880102419E+001	-5.2595758E-001	-5.2600878E-001	-1.838110249844854E-002	9.6686217E-006
2	1	0	0	4.796199878837797E+001	-5.2095157E-001	-5.2100188E-001	-1.760404721137573E-002	9.1717420E-006
2	1	0	1	4.846259877573175E+001	-5.1594555E-001	-5.1601726E-001	-1.687583195290132E-002	8.7082208E-006
2	1	0	0	4.896319876308553E+001	-5.1093954E-001	-5.1100147E-001	-1.616015302289681E-002	8.2578617E-006
2	1	0	1	4.946389875043678E+001	-5.0593263E-001	-5.0597459E-001	-1.543553776233211E-002	7.8099902E-006
2	1	0	1	4.996459873778804E+001	-5.0092566E-001	-5.0098008E-001	-1.472207244144867E-002	7.3754650E-006
2	1	0	0	5.046519872514182E+001	-4.9591962E-001	-4.9595508E-001	-1.406517330901388E-002	6.9756943E-006
2	1	0	1	5.096579871249560E+001	-4.9091360E-001	-4.9094927E-001	-1.342511705233806E-002	6.5910513E-006
2	1	0	0	5.146639869984938E+001	-4.8590761E-001	-4.8595172E-001	-1.280738347997823E-002	6.2237700E-006
2	1	0	1	5.196699868720316E+001	-4.8090160E-001	-4.8094362E-001	-1.224066177389407E-002	5.8870683E-006
2	1	0	0	5.246759867455694E+001	-4.7589564E-001	-4.7593650E-001	-1.168843493304569E-002	5.5629530E-006
2	1	0	1	5.296819866191072E+001	-4.7088960E-001	-4.7091684E-001	-1.112681847453328E-002	5.2398063E-006
2	1	0	0	5.346879864926450E+001	-4.6588358E-001	-4.6591347E-001	-1.059520152906065E-002	4.9364471E-006
2	1	0	1	5.396949863661575E+001	-4.6087658E-001	-4.6091366E-001	-1.010354816464572E-002	4.6568634E-006
2	1	0	1	5.447019862396701E+001	-4.5586964E-001	-4.5590320E-001	-9.613884195335654E-003	4.3830005E-006
2	1	0	0	5.497079861132079E+001	-4.5086366E-001	-4.5088565E-001	-9.169146809660023E-003	4.1342369E-006
2	1	0	1	5.547139859867457E+001	-4.4585755E-001	-4.4588107E-001	-8.730341287953608E-003	3.8926937E-006
2	1	0	0	5.597199858602835E+001	-4.4085151E-001	-4.4088924E-001	-8.322691252448250E-003	3.6693850E-006
2	1	0	1	5.647259857338213E+001	-4.3584549E-001	-4.3587708E-001	-7.913556456338955E-003	3.4493380E-006
2	1	0	0	5.697319856073591E+001	-4.3083951E-001	-4.3084994E-001	-7.521840866881041E-003	3.2407847E-006
2	1	0	1	5.747379854808969E+001	-4.2583346E-001	-4.2585251E-001	-7.141621833140602E-003	3.0412775E-006
2	1	0	0	5.797439853544347E+001	-4.2082745E-001	-4.2086998E-001	-6.801425672830014E-003	2.8625159E-006
2	1	0	1	5.847509852279472E+001	-4.1582045E-001	-4.1585475E-001	-6.462453864261666E-003	2.6874422E-006
2	1	0	1	5.897579851014598E+001	-4.1081348E-001	-4.1084498E-001	-6.124556439817797E-003	2.5162433E-006
2	1	0	0	5.947639849749976E+001	-4.0580752E-001	-4.0582943E-001	-5.815045343309566E-003	2.3599166E-006
2	1	0	1	5.997699848485354E+001	-4.0080151E-001	-4.0085018E-001	-5.523655243612757E-003	2.2141583E-006
2	1	0	0	6.047759847220732E+001	-3.9579546E-001	-3.9583212E-001	-5.232457634879110E-003	2.0711748E-006
2	1	0	1	6.097819845956110E+001	-3.9078951E-001	-3.9082852E-001	-4.962976482089806E-003	1.9396728E-006
2	1	0	0	6.149629844647279E+001	-3.8560843E-001	-3.8564757E-001	-4.705725242807113E-003	1.8147515E-006
2	1	0	1	6.201459843337943E+001	-3.8042554E-001	-3.8047770E-001	-4.444089524059114E-003	1.6908770E-006
2	1	0	0	6.251519842073321E+001	-3.7541950E-001	-3.7545881E-001	-4.201314832295088E-003	1.5774207E-006
2	1	0	1	6.301579840808699E+001	-3.7041348E-001	-3.7044534E-001	-3.975860069478851E-003	1.4728388E-006
2	1	0	0	6.351639839544077E+001	-3.6540744E-001	-3.6544815E-001	-3.765657176117841E-003	1.3761525E-006
2	1	0	1	6.401699838279455E+001	-3.6040148E-001	-3.6043209E-001	-3.563528660911706E-003	1.2844101E-006
2	1	0	0	6.451759837014833E+001	-3.5539544E-001	-3.5543069E-001	-3.374782763711330E-003	1.1995014E-006
2	1	0	1	6.501819835750212E+001	-3.5038939E-001	-3.5042360E-001	-3.183410755737921E-003	1.1155423E-006
2	1	0	0	6.551879834485590E+001	-3.4538338E-001	-3.4540710E-001	-3.009955019229717E-003	1.0396599E-006
2	1	0	1	6.601949833220715E+001	-3.4037629E-001	-3.4040001E-001	-2.839558676565497E-003	9.6658584E-007
2	1	0	1	6.652019831955840E+001	-3.3536935E-001	-3.3540574E-001	-2.679490987778622E-003	8.9871668E-007
2	1	0	0	6.702079830691218E+001	-3.3036336E-001	-3.3038586E-001	-2.537986908952475E-003	8.3851501E-007
2	1	0	1	6.752139829426596E+001	-3.2535735E-001	-3.2539871E-001	-2.384594462863810E-003	7.7594399E-007
2	1	0	0	6.802199828161974E+001	-3.2035130E-001	-3.2040128E-001	-2.250224276820992E-003	7.2097475E-007
2	1	0	1	6.852259826897352E+001	-3.1534523E-001	-3.1538245E-001	-2.118416962316273E-003	6.6811151E-007
2	1	0	0	6.902319825632731E+001	-3.1033924E-001	-3.1038406E-001	-1.992581519615753E-003	6.1846555E-007
2	1	0	1	6.952379824368109E+001	-3.0533329E-001	-3.0536744E-001	-1.873003003887975E-003	5.7195416E-007
2	1	0	0	7.002439823103487E+001	-3.0032730E-001	-3.0036470E-001	-1.765604572840015E-003	5.3032528E-007
2	1	0	1	7.052509821838612E+001	-2.9532027E-001	-2.9534990E-001	-1.659053147566891E-003	4.9000118E-007
2	1	0	1	7.102579820573737E+001	-2.9031327E-001	-2.9034543E-001	-1.561464568880542E-003	4.5336409E-007
2	1	0	0	7.152639819309115E+001	-2.8530732E-001	-2.8534472E-001	-1.465172091678228E-003	4.1807911E-007
2	1	0	1	7.202699818044493E+001	-2.8030127E-001	-2.8033942E-001	-1.380043055335779E-003	3.8688046E-007
2	1	0	0	7.252759816779871E+001	-2.7529523E-001	-2.7531186E-001	-1.296273457551594E-003	3.5687944E-007
2	1	0	1	7.302819815515250E+001	-2.7028918E-001	-2.7033192E-001	-1.221461604351461E-003	3.3020007E-007
2	1	0	0	7.352879814250628E+001	-2.6528314E-001	-2.6532775E-001	-1.141967651088243E-003	3.0299572E-007
2	1	0	1	7.402939812986006E+001	-2.6027712E-001	-2.6030600E-001	-1.071419494378081E-003	2.7889692E-007
2	1	0	0	7.452999811721384E+001	-2.5527120E-001	-2.5529808E-001	-1.003989924394119E-003	2.5631670E-007
2	1	0	0	7.503079810456256E+001	-2.5026312E-001	-2.5028765E-001	-9.427907118654357E-004	2.3596887E-007
2	1	0	1	7.553139809191634E+001	-2.4525717E-001	-2.4531344E-001	-8.803682166430233E-004	2.1596615E-007
2	1	0	0	7.603199807927012E+001	-2.4025118E-001	-2.4031094E-001	-8.224250343420014E-004	1.9763773E-007
2	1	0	1	7.653259806662390E+001	-2.3524514E-001	-2.3529766E-001	-7.637350584791865E-004	1.7970508E-007
2	1	0	0	7.703319805397769E+001	-2.3023911E-001	-2.3030359E-001	-7.124148219402344E-004	1.6407169E-007
2	1	0	1	7.753379804133147E+001	-2.2523309E-001	-2.2529829E-001	-6.634214752754318E-004	1.4946772E-007
2	1	0	0	7.803439802868525E+001	-2.2022709E-001	-2.2029004E-001	-6.214569818492402E-004	1.3690078E-007
2	1	0	1	7.853499801603903E+001	-2.1522108E-001	-2.1528396E-001	-5.766351795261694E-004	1.2414030E-007
2	1	0	0	7.903569800339028E+001	-2.1021408E-001	-2.1028571E-001	-5.367250155647804E-004	1.1286560E-007
2	1	0	0	7.953639799074153E+001	-2.0520706E-001	-2.0527577E-001	-4.969826142864064E-004	1.0201849E-007
2	1	0	1	8.003699797809531E+001	-2.0020111E-001	-2.0026231E-001	-4.622551033187953E-004	9.2572272E-008
2	1	0	0	8.053759796544909E+001	-1.9519508E-001	-1.9525464E-001	-4.280175668786154E-004	8.3572417E-008
2	1	0	1	8.103819795280288E+001	-1.9018906E-001	-1.9024529E-001	-3.950752540369086E-004	7.5161203E-008
2	1	0	0	8.153879794015666E+001	-1.8518305E-001	-1.8523745E-001	-3.658684425951800E-004	6.7772540E-008
2	1	0	1	8.203939792751044E+001	-1.8017706E-001	-1.8022189E-001	-3.367560880554192E-004	6.0690816E-008
2	1	0	0	8.253999791486422E+001	-1.7517099E-001	-1.7522696E-001	-3.095347371371692E-004	5.4238829E-008
2	1	0	1	8.304059790221800E+001	-1.7016500E-001	-1.7021386E-001	-2.843747744034875E-004	4.8404530E-008
2	1	0	0	8.354129788956925E+001	-1.6515800E-001	-1.6521792E-001	-2.639044677895828E-004	4.3601748E-008
2	1	0	0	8.404199787692050E+001	-1.6015100E-001	-1.6019619E-001	-2.423672106893094E-004	3.8826304E-008
2	1	0	1	8.454259786427428E+001	-1.5514499E-001	-1.5518980E-001	-2.211264811914789E-004	3.4316574E-008
2	1	0	0	8.504319785162807E+001	-1.5013899E-001	-1.5017231E-001	-2.003890977539377E-004	3.0092892E-008
2	1	0	1	8.554379783898185E+001	-1.4513294E-001	-1.4518631E-001	-1.839749393772140E-004	2.6710641E-008
2	1	0	0	8.604439782633563E+001	-1.4012694E-001	-1.4015603E-001	-1.659314936069745E-004	2.3256300E-008
2	1	0	1	8.654499781368941E+001	-1.3512093E-001	-1.3513157E-001	-1.489465984454061E-004	2.0127388E-008
2	1	0	0	8.704559780104319E+001	-1.3011490E-001	-1.3014308E-001	-1.348009859372741E-004	1.7543416E-008
2	1	0	1	8.754619778839697E+001	-1.2510887E-001	-1.2513590E-001	-1.173875939865021E-004	1.4689402E-008
2	1	0	0	8.804689777574822E+001	-1.2010184E-001	-1.2011206E-001	-1.029586897236439E-004	1.2366581E-008
2	1	0	0	8.854759776309947E+001	-1.1509489E-001	-1.1511885E-001	-9.056115628444878E-005	1.0425296E-008
2	1	0	1	8.904819775045326E+001	-1.1008889E-001	-1.1011520E-001	-8.006233546289563E-005	8.8160803E-009
2	1	0	0	8.954879773780704E+001	-1.0508288E-001	-1.0510938E-001	-7.072411484256263E-005	7.4337678E-009
2	1	0	1	9.004939772516082E+001	-1.0007685E-001	-1.0008344E-001	-5.969738159540734E-005	5.9747194E-009
2	1	0	0	9.054999771251460E+001	-9.5070846E-002	-9.5080383E-002	-4.974600607093966E-005	4.7298694E-009
2	1	0	1	9.105059769986838E+001	-9.0064801E-002	-9.0095624E-002	-4.003189795901297E-005	3.6066989E-009
2	1	0	0	9.155119768722216E+001	-8.5058801E-002	-8.5091732E-002	-3.148962199591538E-005	2.6795064E-009
2	1	0	1	9.205179767457594E+001	-8.0052800E-002	-8.0084093E-002	-2.324592180431747E-005	1.8616285E-009
2	1	0	1	9.255259766192466E+001	-7.5044796E-002	-7.5070463E-002	-1.514730846939854E-005	1.1371155E-009
2	1	0	0	9.305319764927845E+001	-7.0038803E-002	-7.0065618E-002	-8.382253807030516E-006	5.8730781E-010
2	1	0	1	9.355379763663223E+001	-6.5032810E-002	-6.5058932E-002	-1.339093441576009E-006	8.7119992E-011
2	1	0	0	9.405439762398601E+001	-6.0026776E-002	-6.0051199E-002	5.575574043974093E-006	3.3481989E-010
2	1	0	1	9.455499761133979E+001	-5.5020753E-002	-5.5037253E-002	1.102611615514570E-005	6.0684713E-010
2	1	0	0	9.505559759869357E+001	-5.0014753E-002	-5.0040152E-002	1.740715131555394E-005	8.7105650E-010
2	1	0	1	9.555619758604735E+001	-4.5008697E-002	-4.5031104E-002	2.290617001051229E-005	1.0314901E-009
2	1	0	0	9.605679757340113E+001	-4.0002700E-002	-4.0021200E-002	2.862179143000464E-005	1.1454784E-009
2	1	0	1	9.655749756075238E+001	-3.4995712E-002	-3.5011262E-002	3.371901308688453E-005	1.1805452E-009
2	1	0	1	9.705819754810364E+001	-2.9988760E-002	-3.0014031E-002	3.917027549225406E-005	1.1756578E-009
2	1	0	0	9.755879753545742E+001	-2.4982706E-002	-2.5006596E-002	4.424153214079409E-005	1.1063301E-009
2	1	0	1	9.805939752281120E+001	-1.9976713E-002	-1.9998781E-002	4.929735062414974E-005	9.8588693E-010
2	1	0	0	9.855999751016498E+001	-1.4970711E-002	-1.4992880E-002	5.401584575991320E-005	8.0985307E-010
2	1	0	1	9.906059749751876E+001	-9.9646570E-003	-1.0013253E-002	5.850901324162499E-005	5.8586558E-010
2	1	0	0	9.956119748487254E+001	-4.9586585E-003	-5.0048260E-003	6.303471432405087E-005	3.1547778E-010
2	1	0	1	1.000617974722263E+002	4.7338210E-005	1.1560039E-005	6.749461994926459E-005	7.8024040E-013
2	1	0	0	1.005623974595801E+002	5.0533377E-003	5.0017890E-003	7.203683147518464E-005	3.6031303E-010
2	1	0	1	1.010630974469314E+002	1.0060322E-002	1.0006267E-002	7.635121500280788E-005	7.6399059E-010
2	1	0	1	1.015637974342826E+002	1.5067288E-002	1.5032412E-002	8.056371006200143E-005	1.2110668E-009
2	1	0	0	1.020643974216364E+002	2.0073298E-002	2.0049222E-002	8.491609522168512E-005	1.7025016E-009
2	1	0	1	1.025649974089902E+002	2.5079276E-002	2.5056571E-002	8.924958308246579E-005	2.2362885E-009
2	1	0	0	1.030655973963439E+002	3.0085256E-002	3.0058457E-002	9.366792210489772E-005	2.8155132E-009
2	1	0	1	1.035661973836977E+002	3.5091244E-002	3.5051204E-002	9.834008562002836E-005	3.4469385E-009
2	1	0	0	1.040667973710515E+002	4.0097259E-002	4.0063895E-002	1.026003500588448E-004	4.1105697E-009
2	1	0	1	1.045673973584053E+002	4.5103256E-002	4.5061637E-002	1.069233435653913E-004	4.8181410E-009
2	1	0	0	1.050679973457591E+002	5.0109282E-002	5.0089221E-002	1.118342232864649E-004	5.6016893E-009
2	1	0	1	1.055686973331103E+002	5.5116199E-002	5.5088717E-002	1.167273079777106E-004	6.4303576E-009
2	1	0	1	1.060693973204616E+002	6.0123175E-002	6.0084563E-002	1.227265461026145E-004	7.3739708E-009
2	1	0	0	1.065699973078154E+002	6.5129176E-002	6.5104410E-002	1.278049732264090E-004	8.3206677E-009
2	1	0	1	1.070705972951691E+002	7.0135169E-002	7.0104495E-002	1.328815531379201E-004	9.3155945E-009
2	1	0	0	1.075711972825229E+002	7.5141184E-002	7.5135797E-002	1.374762979057735E-004	1.0329392E-008
2	1	0	1	1.080717972698767E+002	8.0147177E-002	8.0140263E-002	1.430647292537000E-004	1.1465245E-008
2	1	0	0	1.085723972572305E+002	8.5153170E-002	8.5114375E-002	1.487415125241783E-004	1.2660041E-008
2	1	0	1	1.090729972445843E+002	9.0159193E-002	9.0134606E-002	1.534533553227196E-004	1.3831458E-008
2	1	0	0	1.095735972319380E+002	9.5165156E-002	9.5147535E-002	1.594178648875949E-004	1.5168217E-008
2	1	0	0	1.099391972227022E+002	9.8821081E-002	9.8809719E-002	1.648028354796580E-004	1.6284122E-008
2	1	0	0	1.100545972197870E+002	9.9997252E-002	1.0001329E-001	1.679168531804214E-004	1.6793917E-008