EC-Lab ASCII FILE
Nb header lines : 55                          

I-V Characterization

Run on channel : 1 (SN 6514)
User : 
CE vs. WE compliance from -10 V to 10 V
Electrode connection : standard
Ewe ctrl range : min = -1.10 V, max = 0.20 V
Safety Limits :
	Do not start on E overload
Acquisition started on : 06/15/2016 18:45:29
Saved on :
	File : B125-G54-UN-G-D1GB-C9 FW 10mVs dark_C01.mpr
	Directory : E:\EC-Lab measurements\B125-G54-UN-G-D1GB\
	Host : 10.0.2.15
Device : VSP (SN 0295)
Address : USB
EC-Lab for windows v11.01 (software)
Internet server v11.00 (firmware)
Command interpretor v11.00 (firmware)
Electrode material : 
Initial state : 
Electrolyte : 
Comments : 
Electrode surface area : 0.001 cm²
Characteristic mass : 0.001 g
Equivalent Weight : 0.000 g/eq.
Density : 0.000 g/cm3
tR (h:m:s)          0:00:0.0000         
dER/dt (mV/h)       0.0                 
dER (mV)            0                   
dtR (s)             0.0000              
dE/dt               10.000              
dE/dt unit          mV/s                
Ei (V)              0.100               
vs.                 Ref                 
EL (V)              -1.000              
vs.                 Ref                 
record              <I>                 
dI                  0.000               
unit dI             µA                  
tI (s)              0.1000              
step percent        100                 
N                   100                 
E range min (V)     -1.100              
E range max (V)     0.200               
I Range             Auto                
I Range min         Unset               
I Range max         Unset               
I Range init        Unset               
Bandwidth           5                   

mode	ox/red	error	control changes	time/s	control/V	Ewe/V	<I>/mA	P/W
2	0	0	0	8.499999785271939E-002	9.9696882E-002	9.9688627E-002	1.142745246179402E-003	1.1391870E-007
2	0	0	1	3.552999910243670E-001	9.6993022E-002	9.6979618E-002	4.894047094154011E-004	4.7462283E-008
2	0	0	1	8.733999779360602E-001	9.1812029E-002	9.1793336E-002	1.540192150807117E-004	1.4137938E-008
2	0	0	0	1.373999965289840E+000	8.6806051E-002	8.6783342E-002	9.425549284057923E-005	8.1798071E-009
2	0	0	1	1.874599952643621E+000	8.1800044E-002	8.1782572E-002	7.249705934073665E-005	5.9289960E-009
2	0	0	0	2.375199939997401E+000	7.6794043E-002	7.6772280E-002	5.996998781111729E-005	4.6040327E-009
2	0	0	0	2.875999927346129E+000	7.1786121E-002	7.1758546E-002	5.062799349936085E-005	3.6329912E-009
2	0	0	1	3.376599914699909E+000	6.6780135E-002	6.6751316E-002	4.321311412858523E-005	2.8845322E-009
2	0	0	0	3.877199902053690E+000	6.1774112E-002	6.1743055E-002	3.729199286021144E-005	2.3025215E-009
2	0	0	1	4.377799889407470E+000	5.6768093E-002	5.6737188E-002	3.078123301073429E-005	1.7464407E-009
2	0	0	0	4.878399876761250E+000	5.1762115E-002	5.1740587E-002	2.461833440796791E-005	1.2737671E-009
2	0	0	1	5.378999864115031E+000	4.6756130E-002	4.6723641E-002	1.966657918355105E-005	9.1889418E-010
2	0	0	0	5.879599851468811E+000	4.1750122E-002	4.1726399E-002	1.440477705512315E-005	6.0105948E-010
2	0	0	1	6.380199838822591E+000	3.6744118E-002	3.6701959E-002	1.009352746082804E-005	3.7045222E-010
2	0	0	0	6.880899826173845E+000	3.1737167E-002	3.1702120E-002	5.162086005958183E-006	1.6364907E-010
2	0	0	0	7.381599813525099E+000	2.6730217E-002	2.6699226E-002	7.569784049132308E-007	2.0210738E-011
2	0	0	1	7.882199800878880E+000	2.1724198E-002	2.1695690E-002	-3.794248264459424E-006	8.2318832E-011
2	0	0	0	8.382799788232660E+000	1.6718226E-002	1.6677916E-002	-7.912183034227655E-006	1.3195872E-010
2	0	0	1	8.883399775586440E+000	1.1712189E-002	1.1671506E-002	-1.216614539781112E-005	1.4199723E-010
2	0	0	0	9.383999762940221E+000	6.7062140E-003	6.6740140E-003	-1.607154991795768E-005	1.0726175E-010
2	0	0	1	9.884599750294001E+000	1.6997777E-003	1.6654046E-003	-1.997484361449876E-005	3.3266199E-011
2	0	0	0	1.038519973764778E+001	-3.3057677E-003	-3.3613832E-003	-2.383851942519826E-005	8.0130402E-011
2	0	0	1	1.088579972500156E+001	-8.3118044E-003	-8.3546340E-003	-2.760503830338785E-005	2.3062999E-010
2	0	0	0	1.138649971235282E+001	-1.3318791E-002	-1.3362681E-002	-3.131758849026596E-005	4.1848694E-010
2	0	0	0	1.188719969970407E+001	-1.8325802E-002	-1.8354379E-002	-3.501707168801211E-005	6.4271660E-010
2	0	0	1	1.238779968705785E+001	-2.3331800E-002	-2.3347810E-002	-3.853017837335309E-005	8.9959529E-010
2	0	0	0	1.288839967441163E+001	-2.8337793E-002	-2.8356217E-002	-4.204114466883820E-005	1.1921278E-009
2	0	0	1	1.338899966176541E+001	-3.3343829E-002	-3.3369727E-002	-4.565282992090259E-005	1.5234225E-009
2	0	0	0	1.388959964911919E+001	-3.8349833E-002	-3.8357213E-002	-4.918560915653900E-005	1.8866229E-009
2	0	0	1	1.439019963647297E+001	-4.3355845E-002	-4.3374959E-002	-5.298580684556852E-005	2.2982571E-009
2	0	0	0	1.489079962382675E+001	-4.8361842E-002	-4.8373681E-002	-5.617126006491333E-005	2.7172107E-009
2	0	0	1	1.539139961118053E+001	-5.3367905E-002	-5.3397611E-002	-5.964882265344128E-005	3.1851046E-009
2	0	0	0	1.589209959853179E+001	-5.8374841E-002	-5.8395129E-002	-6.267912430121456E-005	3.6601555E-009
2	0	0	0	1.639279958588304E+001	-6.3381836E-002	-6.3421324E-002	-6.619605214557294E-005	4.1982413E-009
2	0	0	1	1.689339957323682E+001	-6.8387873E-002	-6.8422034E-002	-6.992564076743350E-005	4.7844546E-009
2	0	0	0	1.739399956059060E+001	-7.3393889E-002	-7.3417142E-002	-7.319511267494410E-005	5.3737761E-009
2	0	0	1	1.789459954794438E+001	-7.8399934E-002	-7.8423567E-002	-7.634766461528560E-005	5.9874563E-009
2	0	0	0	1.839519953529816E+001	-8.3405934E-002	-8.3438650E-002	-8.010772437870692E-005	6.6840804E-009
2	0	0	1	1.889579952265194E+001	-8.8411950E-002	-8.8435464E-002	-8.359993841317826E-005	7.3931994E-009
2	0	0	0	1.939639951000572E+001	-9.3417943E-002	-9.3437023E-002	-8.761888306595632E-005	8.1868476E-009
2	0	0	1	1.989699949735950E+001	-9.8423980E-002	-9.8430254E-002	-9.137152097310789E-005	8.9937222E-009
2	0	0	1	2.039779948470823E+001	-1.0343193E-001	-1.0345467E-001	-9.521464292887527E-005	9.8503996E-009
2	0	0	0	2.089839947206201E+001	-1.0843797E-001	-1.0845753E-001	-9.908462595100537E-005	1.0746474E-008
2	0	0	1	2.139899945941579E+001	-1.1344399E-001	-1.1346374E-001	-1.030696189691727E-004	1.1694664E-008
2	0	0	0	2.189959944676957E+001	-1.1844996E-001	-1.1846431E-001	-1.074204295724557E-004	1.2725486E-008
2	0	0	1	2.240019943412335E+001	-1.2345599E-001	-1.2348123E-001	-1.121443639540455E-004	1.3847724E-008
2	0	0	0	2.290079942147713E+001	-1.2846203E-001	-1.2848060E-001	-1.157962543128130E-004	1.4877572E-008
2	0	0	1	2.340139940883091E+001	-1.3346803E-001	-1.3349441E-001	-1.200458211586793E-004	1.6025446E-008
2	0	0	0	2.390199939618469E+001	-1.3847402E-001	-1.3849792E-001	-1.237943569942497E-004	1.7145261E-008
2	0	0	1	2.440269938353595E+001	-1.4348108E-001	-1.4352125E-001	-1.283579736359693E-004	1.8422096E-008
2	0	0	1	2.490339937088720E+001	-1.4848803E-001	-1.4851440E-001	-1.335746259213903E-004	1.9837756E-008
2	0	0	0	2.540399935824098E+001	-1.5349407E-001	-1.5352702E-001	-1.386112649095664E-004	2.1280574E-008
2	0	0	1	2.590459934559476E+001	-1.5850008E-001	-1.5852693E-001	-1.439884134667811E-004	2.2826042E-008
2	0	0	0	2.640519933294854E+001	-1.6350608E-001	-1.6355078E-001	-1.487662757550011E-004	2.4330840E-008
2	0	0	1	2.690579932030232E+001	-1.6851209E-001	-1.6856334E-001	-1.542204001296972E-004	2.5995906E-008
2	0	0	0	2.740639930765610E+001	-1.7351815E-001	-1.7357107E-001	-1.599335221020118E-004	2.7759832E-008
2	0	0	1	2.790699929500988E+001	-1.7852414E-001	-1.7858721E-001	-1.662569543575054E-004	2.9691366E-008
2	0	0	0	2.840759928236366E+001	-1.8353018E-001	-1.8357937E-001	-1.721951411669716E-004	3.1611474E-008
2	0	0	1	2.890829926971492E+001	-1.8853714E-001	-1.8858533E-001	-1.779579498880507E-004	3.3560259E-008
2	0	0	1	2.940899925706617E+001	-1.9354412E-001	-1.9360301E-001	-1.847979475234087E-004	3.5777440E-008
2	0	0	0	2.990959924441995E+001	-1.9855015E-001	-1.9861701E-001	-1.908697492765750E-004	3.7909977E-008
2	0	0	1	3.041019923177373E+001	-2.0355619E-001	-2.0362204E-001	-1.979020085869925E-004	4.0297213E-008
2	0	0	0	3.091079921912751E+001	-2.0856215E-001	-2.0861366E-001	-2.046840578603499E-004	4.2699892E-008
2	0	0	1	3.141139920648129E+001	-2.1356824E-001	-2.1363433E-001	-2.124561561132631E-004	4.5387928E-008
2	0	0	0	3.191199919383507E+001	-2.1857421E-001	-2.1863812E-001	-2.194421527185323E-004	4.7978421E-008
2	0	0	1	3.241259918118885E+001	-2.2358017E-001	-2.2364886E-001	-2.269465774871105E-004	5.0756345E-008
2	0	0	0	3.291319916854263E+001	-2.2858624E-001	-2.2865483E-001	-2.338905506065803E-004	5.3480203E-008
2	0	0	1	3.341389915589389E+001	-2.3359321E-001	-2.3364159E-001	-2.427750470010328E-004	5.6722349E-008
2	0	0	1	3.391459914324514E+001	-2.3860022E-001	-2.3868023E-001	-2.520437597522815E-004	6.0157859E-008
2	0	0	0	3.441519913059892E+001	-2.4360624E-001	-2.4366406E-001	-2.597636490997240E-004	6.3295062E-008
2	0	0	1	3.491579911795270E+001	-2.4861224E-001	-2.4864607E-001	-2.683502397409291E-004	6.6724233E-008
2	0	0	0	3.541639910530648E+001	-2.5361827E-001	-2.5365618E-001	-2.767550656393968E-004	7.0200635E-008
2	0	0	1	3.591699909266026E+001	-2.5862426E-001	-2.5865078E-001	-2.871423785891466E-004	7.4269600E-008
2	0	0	0	3.641759908001404E+001	-2.6363027E-001	-2.6367155E-001	-2.971229620746217E-004	7.8342872E-008
2	0	0	1	3.691819906736782E+001	-2.6863626E-001	-2.6866663E-001	-3.075763529238082E-004	8.2635502E-008
2	0	0	0	3.741879905472160E+001	-2.7364233E-001	-2.7366734E-001	-3.170421990316283E-004	8.6764096E-008
2	0	0	0	3.791959904207033E+001	-2.7865031E-001	-2.7869344E-001	-3.277002024475368E-004	9.1327898E-008
2	0	0	1	3.842019902942411E+001	-2.8365627E-001	-2.8370434E-001	-3.389100295406740E-004	9.6150245E-008
2	0	0	0	3.892079901677789E+001	-2.8866231E-001	-2.8869945E-001	-3.510040715012451E-004	1.0133468E-007
2	0	0	1	3.942139900413167E+001	-2.9366833E-001	-2.9369158E-001	-3.623220830698980E-004	1.0641094E-007
2	0	0	0	3.992199899148545E+001	-2.9867443E-001	-2.9871234E-001	-3.743761160875251E-004	1.1183077E-007
2	0	0	1	4.042259897883923E+001	-3.0368048E-001	-3.0373290E-001	-3.874184820296675E-004	1.1767174E-007
2	0	0	0	4.092319896619301E+001	-3.0868647E-001	-3.0873117E-001	-3.997336449646817E-004	1.2341023E-007
2	0	0	1	4.142379895354679E+001	-3.1369245E-001	-3.1372562E-001	-4.151333564822637E-004	1.3023796E-007
2	0	0	0	4.192449894089805E+001	-3.1869951E-001	-3.1874999E-001	-4.297439981012533E-004	1.3698090E-007
2	0	0	0	4.242519892824930E+001	-3.2370645E-001	-3.2374460E-001	-4.440098865865095E-004	1.4374579E-007
2	0	0	1	4.292579891560308E+001	-3.2871246E-001	-3.2872948E-001	-4.592631195979172E-004	1.5097332E-007
2	0	0	0	4.342639890295686E+001	-3.3371848E-001	-3.3372924E-001	-4.757650927154325E-004	1.5877671E-007
2	0	0	1	4.392699889031064E+001	-3.3872449E-001	-3.3874255E-001	-4.923975308303357E-004	1.6679600E-007
2	0	0	0	4.442759887766442E+001	-3.4373048E-001	-3.4375492E-001	-5.080006227769383E-004	1.7462771E-007
2	0	0	1	4.492819886501820E+001	-3.4873649E-001	-3.4877670E-001	-5.269431687644297E-004	1.8378550E-007
2	0	0	0	4.542879885237198E+001	-3.5374245E-001	-3.5376987E-001	-5.462419201846015E-004	1.9324393E-007
2	0	0	1	4.592939883972576E+001	-3.5874847E-001	-3.5877776E-001	-5.664737675504855E-004	2.0323819E-007
2	0	0	0	4.643009882707702E+001	-3.6375543E-001	-3.6378875E-001	-5.845945697281994E-004	2.1266894E-007
2	0	0	0	4.693079881442827E+001	-3.6876246E-001	-3.6879528E-001	-6.043563075807962E-004	2.2288376E-007
2	0	0	1	4.743139880178205E+001	-3.7376851E-001	-3.7379551E-001	-6.258092836105757E-004	2.3392469E-007
2	0	0	0	4.793199878913583E+001	-3.7877455E-001	-3.7880504E-001	-6.474307006043047E-004	2.4525002E-007
2	0	0	1	4.843259877648961E+001	-3.8378063E-001	-3.8382158E-001	-6.702467965135871E-004	2.5725518E-007
2	0	0	0	4.893319876384339E+001	-3.8878661E-001	-3.8881838E-001	-6.952669108478710E-004	2.7033255E-007
2	0	0	1	4.943379875119717E+001	-3.9379266E-001	-3.9382833E-001	-7.206214267928505E-004	2.8380114E-007
2	0	0	0	4.993439873855095E+001	-3.9879864E-001	-3.9883944E-001	-7.464808275266812E-004	2.9772599E-007
2	0	0	1	5.043499872590473E+001	-4.0380463E-001	-4.0385351E-001	-7.732976781925360E-004	3.1229897E-007
2	0	0	1	5.093579871325346E+001	-4.0881258E-001	-4.0883911E-001	-8.023245239080126E-004	3.2802163E-007
2	0	0	0	5.143639870060724E+001	-4.1381860E-001	-4.1384742E-001	-8.318347424013585E-004	3.4425267E-007
2	0	0	1	5.193699868796102E+001	-4.1882458E-001	-4.1885453E-001	-8.632958438989768E-004	3.6159537E-007
2	0	0	0	5.243759867531480E+001	-4.2383060E-001	-4.2386127E-001	-8.954472041366752E-004	3.7954538E-007
2	0	0	1	5.293819866266858E+001	-4.2883664E-001	-4.2887431E-001	-9.299645587115407E-004	3.9883790E-007
2	0	0	0	5.343879865002236E+001	-4.3384260E-001	-4.3387172E-001	-9.625943602833151E-004	4.1764247E-007
2	0	0	1	5.393939863737614E+001	-4.3884858E-001	-4.3888339E-001	-9.969927702372372E-004	4.3756356E-007
2	0	0	0	5.443999862472992E+001	-4.4385463E-001	-4.4388422E-001	-1.035721665063362E-003	4.5974051E-007
2	0	0	1	5.494059861208370E+001	-4.4886065E-001	-4.4887927E-001	-1.071895928148298E-003	4.8115186E-007
2	0	0	1	5.544139859943243E+001	-4.5386860E-001	-4.5390511E-001	-1.113290828913763E-003	5.0532839E-007
2	0	0	0	5.594199858678621E+001	-4.5887461E-001	-4.5890227E-001	-1.155086634738192E-003	5.3007187E-007
2	0	0	1	5.644259857413999E+001	-4.6388066E-001	-4.6392128E-001	-1.199716527484164E-003	5.5657404E-007
2	0	0	0	5.694319856149377E+001	-4.6888673E-001	-4.6892330E-001	-1.246893023462016E-003	5.8469720E-007
2	0	0	1	5.744379854884755E+001	-4.7389278E-001	-4.7394413E-001	-1.292045197739736E-003	6.1235721E-007
2	0	0	0	5.794439853620133E+001	-4.7889873E-001	-4.7892195E-001	-1.340718079760387E-003	6.4209934E-007
2	0	0	1	5.844499852355511E+001	-4.8390469E-001	-4.8394412E-001	-1.392015453765581E-003	6.7365767E-007
2	0	0	0	5.894559851090889E+001	-4.8891073E-001	-4.8895696E-001	-1.445177220143933E-003	7.0662946E-007
2	0	0	1	5.944629849826015E+001	-4.9391770E-001	-4.9397182E-001	-1.500487752642225E-003	7.4119868E-007
2	0	0	1	5.994699848561140E+001	-4.9892470E-001	-4.9898338E-001	-1.559333371555342E-003	7.7808141E-007
2	0	0	0	6.044759847296518E+001	-5.0393069E-001	-5.0399864E-001	-1.621779226077074E-003	8.1737454E-007
2	0	0	1	6.094819846031896E+001	-5.0893670E-001	-5.0898165E-001	-1.687490862910644E-003	8.5890190E-007
2	0	0	0	6.144879844767274E+001	-5.1394272E-001	-5.1399118E-001	-1.753107053770588E-003	9.0108153E-007
2	0	0	1	6.194939843502652E+001	-5.1894873E-001	-5.1902038E-001	-1.822472424584223E-003	9.4590035E-007
2	0	0	0	6.244999842238030E+001	-5.2395475E-001	-5.2400368E-001	-1.893493181558223E-003	9.9219744E-007
2	0	0	1	6.295059840973408E+001	-5.2896076E-001	-5.2900583E-001	-1.968572791414797E-003	1.0413864E-006
2	0	0	0	6.345119839708786E+001	-5.3396678E-001	-5.3401804E-001	-2.047107882462811E-003	1.0931925E-006
2	0	0	1	6.395189838443912E+001	-5.3897381E-001	-5.3901637E-001	-2.127706920354674E-003	1.1468688E-006
2	0	0	1	6.445259837179037E+001	-5.4398078E-001	-5.4403824E-001	-2.208469267903634E-003	1.2014917E-006
2	0	0	0	6.495319835914415E+001	-5.4898679E-001	-5.4903626E-001	-2.301281887855132E-003	1.2634872E-006
2	0	0	1	6.545379834649793E+001	-5.5399293E-001	-5.5405933E-001	-2.388498885952356E-003	1.3233700E-006
2	0	0	0	6.595439833385171E+001	-5.5899894E-001	-5.5907744E-001	-2.481200634121564E-003	1.3871833E-006
2	0	0	1	6.645499832120549E+001	-5.6400496E-001	-5.6405818E-001	-2.581069570000843E-003	1.4558734E-006
2	0	0	0	6.695559830855927E+001	-5.6901097E-001	-5.6906700E-001	-2.683064069309744E-003	1.5268432E-006
2	0	0	1	6.745619829591305E+001	-5.7401699E-001	-5.7408321E-001	-2.788625666222090E-003	1.6009031E-006
2	0	0	0	6.795679828326683E+001	-5.7902300E-001	-5.7908309E-001	-2.899431675067812E-003	1.6790118E-006
2	0	0	0	6.845759827061556E+001	-5.8403081E-001	-5.8407426E-001	-3.017825478809612E-003	1.7626342E-006
2	0	0	1	6.895819825796934E+001	-5.8903694E-001	-5.8909655E-001	-3.134893662868104E-003	1.8467550E-006
2	0	0	0	6.945879824532312E+001	-5.9404302E-001	-5.9411198E-001	-3.256284941161078E-003	1.9345980E-006
2	0	0	1	6.995939823267690E+001	-5.9904909E-001	-5.9910941E-001	-3.387226700300000E-003	2.0293194E-006
2	0	0	0	7.045999822003068E+001	-6.0405493E-001	-6.0411096E-001	-3.525924829457502E-003	2.1300498E-006
2	0	0	1	7.096059820738446E+001	-6.0906100E-001	-6.0912555E-001	-3.663910407556474E-003	2.2317815E-006
2	0	0	0	7.146119819473824E+001	-6.1406702E-001	-6.1413687E-001	-3.806964541770437E-003	2.3379973E-006
2	0	0	1	7.196179818209202E+001	-6.1907309E-001	-6.1912364E-001	-3.957495100202441E-003	2.4501787E-006
2	0	0	0	7.246249816944328E+001	-6.2408000E-001	-6.2414306E-001	-4.112404862168136E-003	2.5667289E-006
2	0	0	0	7.296319815679453E+001	-6.2908709E-001	-6.2914294E-001	-4.274051619687443E-003	2.6889893E-006
2	0	0	1	7.346379814414831E+001	-6.3409311E-001	-6.3414532E-001	-4.443284180678846E-003	2.8176878E-006
2	0	0	0	7.396439813150209E+001	-6.3909918E-001	-6.3913506E-001	-4.617755198143114E-003	2.9513692E-006
2	0	0	1	7.446499811885587E+001	-6.4410520E-001	-6.4413470E-001	-4.797492531372127E-003	3.0902313E-006
2	0	0	0	7.496559810620965E+001	-6.4911121E-001	-6.4914322E-001	-4.991116174532156E-003	3.2399491E-006
2	0	0	1	7.546619809356343E+001	-6.5411729E-001	-6.5415430E-001	-5.188527047552705E-003	3.3940973E-006
2	0	0	0	7.596679808091722E+001	-6.5912318E-001	-6.5915138E-001	-5.390295220116942E-003	3.5530204E-006
2	0	0	1	7.646739806827100E+001	-6.6412926E-001	-6.6415375E-001	-5.599759781156843E-003	3.7191014E-006
2	0	0	0	7.696809805562225E+001	-6.6913617E-001	-6.6917056E-001	-5.821473878592762E-003	3.8955591E-006
2	0	0	0	7.746879804297350E+001	-6.7414320E-001	-6.7416346E-001	-6.050179589197541E-003	4.0788100E-006
2	0	0	1	7.796939803032728E+001	-6.7914909E-001	-6.7917639E-001	-6.288162769827396E-003	4.2707716E-006
2	0	0	0	7.846999801768106E+001	-6.8415523E-001	-6.8418151E-001	-6.532060872627216E-003	4.4691151E-006
2	0	0	1	7.897059800503484E+001	-6.8916112E-001	-6.8918407E-001	-6.781501381792995E-003	4.6737027E-006
2	0	0	0	7.947119799238862E+001	-6.9416732E-001	-6.9419199E-001	-7.045879706174804E-003	4.8911934E-006
2	0	0	1	7.997179797974241E+001	-6.9917315E-001	-6.9918513E-001	-7.314815790085236E-003	5.1144107E-006
2	0	0	0	8.047239796709619E+001	-7.0417935E-001	-7.0420659E-001	-7.594823278954374E-003	5.3483245E-006
2	0	0	1	8.097299795444997E+001	-7.0918524E-001	-7.0920300E-001	-7.885236266751760E-003	5.5922333E-006
2	0	0	0	8.147369794180122E+001	-7.1419227E-001	-7.1423417E-001	-8.182361206681449E-003	5.8441219E-006
2	0	0	0	8.197439792915247E+001	-7.1919918E-001	-7.1921754E-001	-8.488148241108481E-003	6.1048249E-006
2	0	0	1	8.247499791650625E+001	-7.2420537E-001	-7.2422230E-001	-8.803527615477771E-003	6.3757111E-006
2	0	0	0	8.297559790386003E+001	-7.2921145E-001	-7.2923374E-001	-9.137240904172811E-003	6.6631842E-006
2	0	0	1	8.347619789121381E+001	-7.3421735E-001	-7.3422754E-001	-9.460454111325567E-003	6.9461257E-006
2	0	0	0	8.397679787856760E+001	-7.3922354E-001	-7.3924220E-001	-9.810016699125956E-003	7.2519783E-006
2	0	0	1	8.449489786547929E+001	-7.4440426E-001	-7.4441999E-001	-1.017928651846878E-002	7.5776643E-006
2	0	0	1	8.501309785238846E+001	-7.4958646E-001	-7.4960870E-001	-1.057028258378578E-002	7.9235760E-006
2	0	0	1	8.551379783973971E+001	-7.5459319E-001	-7.5461262E-001	-1.095778234020411E-002	8.2688812E-006
2	0	0	0	8.601439782709349E+001	-7.5959939E-001	-7.5962204E-001	-1.135238289343510E-002	8.6235204E-006
2	0	0	1	8.651499781444727E+001	-7.6460522E-001	-7.6463735E-001	-1.176385026821019E-002	8.9950790E-006
2	0	0	0	8.701559780180105E+001	-7.6961142E-001	-7.6965219E-001	-1.217430895273322E-002	9.3699837E-006
2	0	0	1	8.751619778915483E+001	-7.7461720E-001	-7.7463263E-001	-1.260031901901273E-002	9.7606180E-006
2	0	0	0	8.801679777650861E+001	-7.7962351E-001	-7.7965331E-001	-1.303758768841652E-002	1.0164798E-005
2	0	0	1	8.851739776386239E+001	-7.8462929E-001	-7.8466254E-001	-1.349528825330110E-002	1.0589247E-005
2	0	0	0	8.901809775121365E+001	-7.8963643E-001	-7.8967029E-001	-1.394505417779543E-002	1.1011995E-005
2	0	0	0	8.951879773856490E+001	-7.9464322E-001	-7.9468423E-001	-1.441572310354329E-002	1.1455948E-005
2	0	0	1	9.001939772591868E+001	-7.9964954E-001	-7.9968286E-001	-1.489864317091674E-002	1.1914190E-005
2	0	0	0	9.051999771327246E+001	-8.0465543E-001	-8.0468524E-001	-1.540410894020082E-002	1.2395459E-005
2	0	0	1	9.102059770062624E+001	-8.0966145E-001	-8.0970836E-001	-1.592316511280312E-002	1.2893120E-005
2	0	0	0	9.152119768798002E+001	-8.1466752E-001	-8.1471789E-001	-1.645537782916978E-002	1.3406490E-005
2	0	0	1	9.202179767533380E+001	-8.1967342E-001	-8.1971455E-001	-1.698477540094742E-002	1.3922668E-005
2	0	0	0	9.252239766268758E+001	-8.2467967E-001	-8.2473266E-001	-1.754034271180385E-002	1.4466093E-005
2	0	0	1	9.302299765004136E+001	-8.2968551E-001	-8.2973111E-001	-1.810184169192697E-002	1.5019661E-005
2	0	0	0	9.352369763739262E+001	-8.3469260E-001	-8.3474910E-001	-1.868467665870732E-002	1.5597017E-005
2	0	0	0	9.402439762474387E+001	-8.3969939E-001	-8.3973312E-001	-1.927745063108877E-002	1.6187914E-005
2	0	0	1	9.452499761209765E+001	-8.4470552E-001	-8.4474766E-001	-1.987443443881548E-002	1.6788883E-005
2	0	0	0	9.502559759945143E+001	-8.4971130E-001	-8.4977174E-001	-2.047831433332564E-002	1.7401893E-005
2	0	0	1	9.552619758680521E+001	-8.5471755E-001	-8.5475653E-001	-2.110598902119570E-002	1.8040482E-005
2	0	0	0	9.602679757415899E+001	-8.5972327E-001	-8.5978186E-001	-2.174770575625318E-002	1.8698283E-005
2	0	0	1	9.652739756151277E+001	-8.6472964E-001	-8.6479020E-001	-2.241219933486341E-002	1.9381851E-005
2	0	0	0	9.702799754886655E+001	-8.6973542E-001	-8.6978561E-001	-2.308046166867889E-002	2.0075053E-005
2	0	0	1	9.752859753622033E+001	-8.7474167E-001	-8.7478358E-001	-2.375491241243838E-002	2.0780408E-005
2	0	0	0	9.802929752357159E+001	-8.7974846E-001	-8.7977135E-001	-2.444644247310762E-002	2.1507280E-005
2	0	0	0	9.852999751092284E+001	-8.8475567E-001	-8.8478094E-001	-2.515114846100026E-002	2.2253256E-005
2	0	0	1	9.903059749827662E+001	-8.8976151E-001	-8.8979441E-001	-2.585970383262787E-002	2.3009819E-005
2	0	0	0	9.953119748563040E+001	-8.9476758E-001	-8.9480937E-001	-2.659707109385845E-002	2.3799308E-005
2	0	0	1	1.000317974729842E+002	-8.9977372E-001	-8.9980394E-001	-2.734354604216105E-002	2.4603831E-005
2	0	0	0	1.005323974603380E+002	-9.0477955E-001	-9.0482599E-001	-2.808489078838287E-002	2.5411939E-005
2	0	0	1	1.010329974476917E+002	-9.0978575E-001	-9.0983081E-001	-2.885192870088510E-002	2.6250375E-005
2	0	0	0	1.015335974350455E+002	-9.1479152E-001	-9.1482711E-001	-2.963514496322478E-002	2.7111035E-005
2	0	0	1	1.020341974223993E+002	-9.1979778E-001	-9.1982388E-001	-3.040781262919647E-002	2.7969832E-005
2	0	0	1	1.025349974097480E+002	-9.2480540E-001	-9.2484325E-001	-3.121040900312155E-002	2.8864737E-005
2	0	0	0	1.030355973971018E+002	-9.2981166E-001	-9.2985976E-001	-3.201796264320489E-002	2.9772214E-005
2	0	0	1	1.035361973844556E+002	-9.3481749E-001	-9.3485284E-001	-3.282968406086229E-002	3.0690924E-005
2	0	0	0	1.040367973718094E+002	-9.3982369E-001	-9.3986207E-001	-3.367305447322144E-002	3.1648025E-005
2	0	0	1	1.045373973591632E+002	-9.4482940E-001	-9.4487959E-001	-3.452788552065245E-002	3.2624695E-005
2	0	0	0	1.050379973465169E+002	-9.4983578E-001	-9.4988066E-001	-3.537451656948021E-002	3.3601569E-005
2	0	0	1	1.055385973338707E+002	-9.5484149E-001	-9.5485377E-001	-3.622233339133918E-002	3.4587032E-005
2	0	0	0	1.060391973212245E+002	-9.5984781E-001	-9.5985013E-001	-3.710070787245257E-002	3.5611120E-005
2	0	0	1	1.065398973085757E+002	-9.6485448E-001	-9.6489924E-001	-3.798158155600934E-002	3.6648398E-005
2	0	0	1	1.070405972959270E+002	-9.6986169E-001	-9.6989530E-001	-3.886843639554260E-002	3.7698315E-005
2	0	0	0	1.075411972832808E+002	-9.7486764E-001	-9.7489947E-001	-3.977420913752698E-002	3.8775856E-005
2	0	0	1	1.080417972706346E+002	-9.7987360E-001	-9.7992229E-001	-4.067188940100430E-002	3.9855291E-005
2	0	0	0	1.085423972579883E+002	-9.8487973E-001	-9.8492998E-001	-4.157862285667357E-002	4.0952033E-005
2	0	0	1	1.090429972453421E+002	-9.8988557E-001	-9.8992962E-001	-4.249915260406745E-002	4.2071169E-005
2	0	0	0	1.095435972326959E+002	-9.9489188E-001	-9.9490511E-001	-4.340715110456495E-002	4.3185995E-005
2	0	0	1	1.099240972230837E+002	-9.9869567E-001	-9.9871612E-001	-4.410485119502761E-002	4.4048225E-005
2	0	0	0	1.100521972198476E+002	-1.0000215E+000	-1.0001715E+000	-4.435515217483044E-002	4.4362761E-005