EC-Lab ASCII FILE
Nb header lines : 55                          

I-V Characterization

Run on channel : 1 (SN 6514)
User : 
CE vs. WE compliance from -10 V to 10 V
Electrode connection : standard
Ewe ctrl range : min = -1.10 V, max = 0.20 V
Safety Limits :
	Do not start on E overload
Acquisition started on : 06/15/2016 18:28:56
Saved on :
	File : B125-G54-UN-G-D1GB-C8 BW 100mVs_03_IVC_C01.mpr
	Directory : E:\EC-Lab measurements\B125-G54-UN-G-D1GB\
	Host : 10.0.2.15
Device : VSP (SN 0295)
Address : USB
EC-Lab for windows v11.01 (software)
Internet server v11.00 (firmware)
Command interpretor v11.00 (firmware)
Electrode material : 
Initial state : 
Electrolyte : 
Comments : 
Electrode surface area : 0.001 cm²
Characteristic mass : 0.001 g
Equivalent Weight : 0.000 g/eq.
Density : 0.000 g/cm3
tR (h:m:s)          0:00:0.0000         
dER/dt (mV/h)       0.0                 
dER (mV)            0                   
dtR (s)             0.0000              
dE/dt               100.000             
dE/dt unit          mV/s                
Ei (V)              -1.000              
vs.                 Ref                 
EL (V)              0.100               
vs.                 Ref                 
record              <I>                 
dI                  0.000               
unit dI             µA                  
tI (s)              0.1000              
step percent        100                 
N                   100                 
E range min (V)     -1.100              
E range max (V)     0.200               
I Range             Auto                
I Range min         Unset               
I Range max         Unset               
I Range init        Unset               
Bandwidth           5                   

mode	ox/red	error	control changes	time/s	control/V	Ewe/V	<I>/mA	P/W
2	1	0	1	2.205239944290952E+001	-1.0000715E+000	-1.0911932E+000	-4.223347175866365E-003	4.6084879E-006
2	1	0	1	2.207759944227291E+001	-9.9754560E-001	-9.9764395E-001	-1.143995732934600E+000	1.1413004E-003
2	1	0	1	2.212759944100981E+001	-9.9254352E-001	-9.9265367E-001	-1.141899810226740E+000	1.1335111E-003
2	1	0	0	2.217769943974417E+001	-9.8753279E-001	-9.8764777E-001	-1.141362162543802E+000	1.1272638E-003
2	1	0	0	2.222779943847854E+001	-9.8252517E-001	-9.8264349E-001	-1.143071056693149E+000	1.1232314E-003
2	1	0	0	2.227779943721544E+001	-9.7752255E-001	-9.7762829E-001	-1.141566059756784E+000	1.1160272E-003
2	1	0	1	2.232789943594980E+001	-9.7251463E-001	-9.7262985E-001	-1.141703829465873E+000	1.1104553E-003
2	1	0	1	2.237799943468417E+001	-9.6750438E-001	-9.6761960E-001	-1.141893179025367E+000	1.1049182E-003
2	1	0	1	2.242799943342106E+001	-9.6250188E-001	-9.6261728E-001	-1.139914606114507E+000	1.0973015E-003
2	1	0	0	2.247809943215543E+001	-9.5749539E-001	-9.5757312E-001	-1.136769031601162E+000	1.0885395E-003
2	1	0	0	2.252819943088980E+001	-9.5248336E-001	-9.5259511E-001	-1.133395699169517E+000	1.0796672E-003
2	1	0	0	2.257819942962669E+001	-9.4748324E-001	-9.4761133E-001	-1.129720782307805E+000	1.0705362E-003
2	1	0	0	2.262819942836359E+001	-9.4248497E-001	-9.4259280E-001	-1.127184717417720E+000	1.0624762E-003
2	1	0	1	2.267839942709543E+001	-9.3746281E-001	-9.3757415E-001	-1.122899647883457E+000	1.0528017E-003
2	1	0	1	2.272839942583232E+001	-9.3246454E-001	-9.3257689E-001	-1.116999530516647E+000	1.0416879E-003
2	1	0	1	2.277839942456922E+001	-9.2746383E-001	-9.2757773E-001	-1.108337677513560E+000	1.0280693E-003
2	1	0	0	2.282849942330358E+001	-9.2245185E-001	-9.2256033E-001	-1.098186823451439E+000	1.0131436E-003
2	1	0	0	2.287859942203795E+001	-9.1744572E-001	-9.1755587E-001	-1.085315327002633E+000	9.9583750E-004
2	1	0	0	2.292859942077484E+001	-9.1244298E-001	-9.1257191E-001	-1.070171934443255E+000	9.7660883E-004
2	1	0	1	2.297869941950921E+001	-9.0743369E-001	-9.0755540E-001	-1.053066523656721E+000	9.5571618E-004
2	1	0	1	2.302879941824358E+001	-9.0242475E-001	-9.0254009E-001	-1.033967938899387E+000	9.3319750E-004
2	1	0	1	2.307879941698047E+001	-8.9742237E-001	-8.9751989E-001	-1.011732816995022E+000	9.0805034E-004
2	1	0	0	2.312889941571484E+001	-8.9241433E-001	-8.9252001E-001	-9.872409309557053E-001	8.8113226E-004
2	1	0	0	2.317899941444921E+001	-8.8740402E-001	-8.8752049E-001	-9.599290334629487E-001	8.5195666E-004
2	1	0	0	2.322899941318610E+001	-8.8240182E-001	-8.8249010E-001	-9.290842199244125E-001	8.1990764E-004
2	1	0	0	2.327899941192300E+001	-8.7740558E-001	-8.7751740E-001	-8.973579755160941E-001	7.8744726E-004
2	1	0	1	2.332919941065484E+001	-8.7238306E-001	-8.7250048E-001	-8.638804356557390E-001	7.5373607E-004
2	1	0	1	2.337919940939173E+001	-8.6738336E-001	-8.6751539E-001	-8.278192191163001E-001	7.1814592E-004
2	1	0	1	2.342919940812862E+001	-8.6238432E-001	-8.6251074E-001	-7.918859148818542E-001	6.8301009E-004
2	1	0	0	2.347939940686047E+001	-8.5736227E-001	-8.5747445E-001	-7.553903817030587E-001	6.4772792E-004
2	1	0	0	2.352939940559736E+001	-8.5236460E-001	-8.5248327E-001	-7.172998905974106E-001	6.1148615E-004
2	1	0	0	2.357939940433425E+001	-8.4736377E-001	-8.4748018E-001	-6.789693699220676E-001	5.7541305E-004
2	1	0	1	2.362949940306862E+001	-8.4235245E-001	-8.4244943E-001	-6.400231260692477E-001	5.3918711E-004
2	1	0	1	2.367959940180299E+001	-8.3734506E-001	-8.3745313E-001	-6.017582935153607E-001	5.0394435E-004
2	1	0	1	2.372959940053988E+001	-8.3234257E-001	-8.3246762E-001	-5.633206845070760E-001	4.6894624E-004
2	1	0	0	2.377969939927425E+001	-8.2733345E-001	-8.2744718E-001	-5.248112863549483E-001	4.3425363E-004
2	1	0	0	2.382979939800862E+001	-8.2232457E-001	-8.2242399E-001	-4.860596772173977E-001	3.9974714E-004
2	1	0	0	2.387979939674551E+001	-8.1732178E-001	-8.1742775E-001	-4.489947914201240E-001	3.6702081E-004
2	1	0	1	2.394499939509842E+001	-8.1080341E-001	-8.1088334E-001	-4.000101291918208E-001	3.2436155E-004
2	1	0	1	2.400999939345638E+001	-8.0430478E-001	-8.0435586E-001	-3.526913199576203E-001	2.8368933E-004
2	1	0	1	2.405999939219328E+001	-7.9930335E-001	-7.9936075E-001	-3.170721790364719E-001	2.5345504E-004
2	1	0	0	2.411009939092764E+001	-7.9429215E-001	-7.9435587E-001	-2.818040622029176E-001	2.2385271E-004
2	1	0	0	2.416019938966201E+001	-7.8928506E-001	-7.8934902E-001	-2.474740070139996E-001	1.9534337E-004
2	1	0	0	2.421019938839891E+001	-7.8428245E-001	-7.8432757E-001	-2.143472643359097E-001	1.6811847E-004
2	1	0	1	2.426029938713327E+001	-7.7927381E-001	-7.7931255E-001	-1.813538960465039E-001	1.4133137E-004
2	1	0	1	2.431039938586764E+001	-7.7426416E-001	-7.7432716E-001	-1.493606135975626E-001	1.1565398E-004
2	1	0	1	2.436039938460453E+001	-7.6926172E-001	-7.6931614E-001	-1.180081391083985E-001	9.0785565E-005
2	1	0	0	2.441049938333890E+001	-7.6425469E-001	-7.6430959E-001	-8.768161756635795E-002	6.7015899E-005
2	1	0	0	2.446059938207327E+001	-7.5924343E-001	-7.5928932E-001	-5.783942872221692E-002	4.3916862E-005
2	1	0	0	2.451059938081016E+001	-7.5424206E-001	-7.5427175E-001	-2.849974996702806E-002	2.1496557E-005
2	1	0	0	2.456059937954706E+001	-7.4924511E-001	-7.4927729E-001	-3.109273421841403E-004	2.3297079E-007
2	1	0	1	2.461079937827890E+001	-7.4422246E-001	-7.4424875E-001	2.734729564801053E-002	2.0353191E-005
2	1	0	1	2.466079937701579E+001	-7.3922360E-001	-7.3924553E-001	5.387253121001834E-002	3.9825027E-005
2	1	0	1	2.471079937575269E+001	-7.3422378E-001	-7.3425180E-001	7.977048712671975E-002	5.8571623E-005
2	1	0	0	2.476099937448453E+001	-7.2920173E-001	-7.2922707E-001	1.051418621912417E-001	7.6672295E-005
2	1	0	0	2.481099937322142E+001	-7.2420466E-001	-7.2422844E-001	1.296067556349287E-001	9.3864895E-005
2	1	0	0	2.486099937195831E+001	-7.1920311E-001	-7.1922833E-001	1.539454773073227E-001	1.1072195E-004
2	1	0	1	2.491109937069268E+001	-7.1419257E-001	-7.1422523E-001	1.773381999521189E-001	1.2665942E-004
2	1	0	1	2.496119936942705E+001	-7.0918453E-001	-7.0921850E-001	1.999503907552636E-001	1.4180852E-004
2	1	0	1	2.501119936816394E+001	-7.0418221E-001	-7.0421040E-001	2.223521699483948E-001	1.5658271E-004
2	1	0	0	2.506129936689831E+001	-6.9917357E-001	-6.9919896E-001	2.436914785067423E-001	1.7038883E-004
2	1	0	0	2.511139936563268E+001	-6.9416344E-001	-6.9420040E-001	2.648258430614057E-001	1.8384220E-004
2	1	0	0	2.516139936436957E+001	-6.8916112E-001	-6.8920672E-001	2.852512812578372E-001	1.9659710E-004
2	1	0	1	2.521149936310394E+001	-6.8415511E-001	-6.8418080E-001	3.053627826379364E-001	2.0892335E-004
2	1	0	1	2.526159936183831E+001	-6.7914283E-001	-6.7919171E-001	3.247602837102703E-001	2.2057450E-004
2	1	0	1	2.531159936057520E+001	-6.7414266E-001	-6.7418545E-001	3.430206670836782E-001	2.3125955E-004
2	1	0	1	2.536159935931209E+001	-6.6914415E-001	-6.6918522E-001	3.614592612423788E-001	2.4188320E-004
2	1	0	0	2.541179935804394E+001	-6.6412181E-001	-6.6415125E-001	3.799306295143463E-001	2.5233140E-004
2	1	0	0	2.546179935678083E+001	-6.5912348E-001	-6.5915304E-001	3.978976806525978E-001	2.6227545E-004
2	1	0	0	2.551179935551772E+001	-6.5412354E-001	-6.5416330E-001	4.149947387455235E-001	2.7147433E-004
2	1	0	1	2.556189935425209E+001	-6.4911133E-001	-6.4916575E-001	4.321683118611297E-001	2.8054888E-004
2	1	0	1	2.561199935298646E+001	-6.4410502E-001	-6.4415187E-001	4.482921901725780E-001	2.8876826E-004
2	1	0	1	2.566199935172335E+001	-6.3910270E-001	-6.3915604E-001	4.639786665852990E-001	2.9655476E-004
2	1	0	0	2.571209935045772E+001	-6.3409251E-001	-6.3416862E-001	4.790064539118166E-001	3.0377085E-004
2	1	0	0	2.576219934919209E+001	-6.2908375E-001	-6.2915838E-001	4.937031636215274E-001	3.1061747E-004
2	1	0	0	2.581219934792898E+001	-6.2408143E-001	-6.2415808E-001	5.086379667385161E-001	3.1747049E-004
2	1	0	1	2.586229934666335E+001	-6.1907399E-001	-6.1914063E-001	5.228583285831485E-001	3.2372284E-004
2	1	0	1	2.591239934539772E+001	-6.1406314E-001	-6.1412030E-001	5.362617196768724E-001	3.2932922E-004
2	1	0	1	2.596239934413461E+001	-6.0906154E-001	-6.0912859E-001	5.489840956936263E-001	3.3440191E-004
2	1	0	1	2.601239934287150E+001	-6.0406476E-001	-6.0413122E-001	5.620052819874239E-001	3.3952494E-004
2	1	0	0	2.606259934160335E+001	-5.9904218E-001	-5.9911591E-001	5.751218156917610E-001	3.4456461E-004
2	1	0	0	2.611259934034024E+001	-5.9404230E-001	-5.9411955E-001	5.879266135010033E-001	3.4929870E-004
2	1	0	0	2.616259933907713E+001	-5.8904409E-001	-5.8910263E-001	6.003416275841298E-001	3.5366282E-004
2	1	0	1	2.621279933780897E+001	-5.8402151E-001	-5.8407730E-001	6.112020777595468E-001	3.5698927E-004
2	1	0	1	2.626279933654587E+001	-5.7902402E-001	-5.7907814E-001	6.222995073905206E-001	3.6036005E-004
2	1	0	1	2.631279933528276E+001	-5.7402313E-001	-5.7409000E-001	6.344498951784279E-001	3.6423135E-004
2	1	0	0	2.636289933401713E+001	-5.6901139E-001	-5.6905854E-001	6.448104683286040E-001	3.6693490E-004
2	1	0	0	2.641299933275150E+001	-5.6400424E-001	-5.6405890E-001	6.556015377861257E-001	3.6979787E-004
2	1	0	0	2.646299933148839E+001	-5.5900210E-001	-5.5908424E-001	6.653587432735986E-001	3.7199160E-004
2	1	0	1	2.651309933022276E+001	-5.5399269E-001	-5.5406678E-001	6.760990338996464E-001	3.7460402E-004
2	1	0	1	2.656319932895713E+001	-5.4898393E-001	-5.4903579E-001	6.862137718683332E-001	3.7675592E-004
2	1	0	1	2.661319932769402E+001	-5.4398167E-001	-5.4403907E-001	6.954945558478762E-001	3.7837622E-004
2	1	0	0	2.666329932642839E+001	-5.3897405E-001	-5.3903675E-001	7.051632094515092E-001	3.8010889E-004
2	1	0	0	2.671339932516275E+001	-5.3396267E-001	-5.3402686E-001	7.155488924788820E-001	3.8212232E-004
2	1	0	0	2.676339932389965E+001	-5.2896130E-001	-5.2902514E-001	7.249835400725857E-001	3.8353453E-004
2	1	0	0	2.681339932263654E+001	-5.2396452E-001	-5.2401233E-001	7.329154320187090E-001	3.8405671E-004
2	1	0	1	2.686359932136838E+001	-5.1894206E-001	-5.1901585E-001	7.425629474402418E-001	3.8540195E-004
2	1	0	1	2.691359932010528E+001	-5.1394308E-001	-5.1400501E-001	7.508940529275527E-001	3.8596330E-004
2	1	0	1	2.696359931884217E+001	-5.0894368E-001	-5.0899512E-001	7.580345151999248E-001	3.8583585E-004
2	1	0	0	2.701379931757401E+001	-5.0392109E-001	-5.0397319E-001	7.657316684183577E-001	3.8590824E-004
2	1	0	0	2.706379931631091E+001	-4.9892381E-001	-4.9898204E-001	7.745017914351395E-001	3.8646249E-004
2	1	0	0	2.711379931504780E+001	-4.9392283E-001	-4.9399203E-001	7.831050205831316E-001	3.8684765E-004
2	1	0	1	2.716389931378217E+001	-4.8891145E-001	-4.8896727E-001	7.907959712250250E-001	3.8667335E-004
2	1	0	1	2.721399931251653E+001	-4.8390430E-001	-4.8396242E-001	7.980234915980908E-001	3.8621339E-004
2	1	0	1	2.726399931125343E+001	-4.7890207E-001	-4.7894427E-001	8.041292304064873E-001	3.8513308E-004
2	1	0	0	2.731409930998780E+001	-4.7389287E-001	-4.7394517E-001	8.100809970592451E-001	3.8393398E-004
2	1	0	0	2.736419930872216E+001	-4.6888313E-001	-4.6892127E-001	8.172870714352740E-001	3.8324328E-004
2	1	0	0	2.741419930745906E+001	-4.6388096E-001	-4.6392119E-001	8.222864456249663E-001	3.8147610E-004
2	1	0	1	2.746429930619342E+001	-4.5887411E-001	-4.5892179E-001	8.280818749768528E-001	3.8002481E-004
2	1	0	1	2.751439930492779E+001	-4.5386258E-001	-4.5390812E-001	8.330294771811033E-001	3.7811883E-004
2	1	0	1	2.756439930366469E+001	-4.4886193E-001	-4.4889450E-001	8.397224096244162E-001	3.7694676E-004
2	1	0	1	2.761439930240158E+001	-4.4386420E-001	-4.4390997E-001	8.455852625430964E-001	3.7536374E-004
2	1	0	0	2.766459930113342E+001	-4.3884158E-001	-4.3889132E-001	8.513405257222821E-001	3.7364598E-004
2	1	0	0	2.771459929987032E+001	-4.3384287E-001	-4.3387580E-001	8.570737771834649E-001	3.7186357E-004
2	1	0	0	2.776459929860721E+001	-4.2884332E-001	-4.2886603E-001	8.633732564950307E-001	3.7027145E-004
2	1	0	1	2.781479929733905E+001	-4.2382064E-001	-4.2385289E-001	8.690128323411878E-001	3.6833360E-004
2	1	0	1	2.786479929607594E+001	-4.1882446E-001	-4.1887343E-001	8.740796518696352E-001	3.6612875E-004
2	1	0	1	2.791479929481284E+001	-4.1382232E-001	-4.1386053E-001	8.773072909026229E-001	3.6308286E-004
2	1	0	0	2.796489929354721E+001	-4.0881169E-001	-4.0883735E-001	8.833736765001184E-001	3.6115616E-004
2	1	0	0	2.801499929228157E+001	-4.0380371E-001	-4.0385151E-001	8.877144725082768E-001	3.5850483E-004
2	1	0	0	2.806499929101847E+001	-3.9880162E-001	-3.9885789E-001	8.908402237591329E-001	3.5531865E-004
2	1	0	1	2.811509928975283E+001	-3.9379287E-001	-3.9383462E-001	8.951260645958232E-001	3.5253164E-004
2	1	0	1	2.816519928848720E+001	-3.8878316E-001	-3.8881603E-001	8.998791943273119E-001	3.4988744E-004
2	1	0	1	2.821519928722410E+001	-3.8378069E-001	-3.8382766E-001	9.046116575144518E-001	3.4721498E-004
2	1	0	0	2.826529928595846E+001	-3.7877426E-001	-3.7882245E-001	9.091259066289634E-001	3.4439730E-004
2	1	0	0	2.831539928469283E+001	-3.7376213E-001	-3.7379596E-001	9.133293735031263E-001	3.4139882E-004
2	1	0	0	2.836539928342972E+001	-3.6876187E-001	-3.6879998E-001	9.175392753214453E-001	3.3838846E-004
2	1	0	0	2.841539928216662E+001	-3.6376348E-001	-3.6380181E-001	9.216387004363842E-001	3.3529382E-004
2	1	0	1	2.846559928089846E+001	-3.5874119E-001	-3.5878754E-001	9.251004694989327E-001	3.3191452E-004
2	1	0	1	2.851559927963535E+001	-3.5374326E-001	-3.5377520E-001	9.279241909808889E-001	3.2827657E-004
2	1	0	1	2.856559927837225E+001	-3.4874269E-001	-3.4877518E-001	9.302250947124300E-001	3.2443943E-004
2	1	0	0	2.861569927710661E+001	-3.4373069E-001	-3.4375563E-001	9.331331691756990E-001	3.2076979E-004
2	1	0	0	2.866579927584098E+001	-3.3872432E-001	-3.3875531E-001	9.373672791645422E-001	3.1753816E-004
2	1	0	0	2.871579927457788E+001	-3.3372197E-001	-3.3373275E-001	9.416207628370485E-001	3.1424969E-004
2	1	0	1	2.876589927331224E+001	-3.2871172E-001	-3.2873723E-001	9.453628910064662E-001	3.1077597E-004
2	1	0	1	2.881599927204661E+001	-3.2370362E-001	-3.2375145E-001	9.475990760469450E-001	3.0678656E-004
2	1	0	1	2.886599927078350E+001	-3.1870109E-001	-3.1874979E-001	9.492704412034376E-001	3.0257975E-004
2	1	0	0	2.891609926951787E+001	-3.1369311E-001	-3.1372583E-001	9.520911232030507E-001	2.9869558E-004
2	1	0	0	2.896619926825224E+001	-3.0868238E-001	-3.0873466E-001	9.554109357157401E-001	2.9496846E-004
2	1	0	0	2.901619926698913E+001	-3.0368075E-001	-3.0370560E-001	9.595238253385503E-001	2.9141275E-004
2	1	0	0	2.906619926572603E+001	-2.9868397E-001	-2.9873359E-001	9.631917185722365E-001	2.8773773E-004
2	1	0	1	2.911639926445787E+001	-2.9366180E-001	-2.9370445E-001	9.640911972232882E-001	2.8315789E-004
2	1	0	1	2.916639926319476E+001	-2.8866208E-001	-2.8870568E-001	9.654236326406709E-001	2.7872328E-004
2	1	0	1	2.921639926193166E+001	-2.8366309E-001	-2.8370363E-001	9.682935739708540E-001	2.7470841E-004
2	1	0	0	2.926659926066350E+001	-2.7864107E-001	-2.7868587E-001	9.708172942797368E-001	2.7055305E-004
2	1	0	0	2.931659925940039E+001	-2.7364331E-001	-2.7366811E-001	9.733939449523916E-001	2.6638689E-004
2	1	0	0	2.936659925813728E+001	-2.6864228E-001	-2.6867244E-001	9.760523492843545E-001	2.6223838E-004
2	1	0	1	2.941669925687165E+001	-2.6363060E-001	-2.6367548E-001	9.784297483675442E-001	2.5798794E-004
2	1	0	1	2.946679925560602E+001	-2.5862402E-001	-2.5866222E-001	9.805859613832801E-001	2.5364055E-004
2	1	0	1	2.951679925434291E+001	-2.5362149E-001	-2.5365013E-001	9.826844967035009E-001	2.4925804E-004
2	1	0	0	2.956689925307728E+001	-2.4861217E-001	-2.4865481E-001	9.845995737972597E-001	2.4482541E-004
2	1	0	0	2.961699925181165E+001	-2.4360301E-001	-2.4365039E-001	9.858897042977866E-001	2.4021241E-004
2	1	0	0	2.966699925054854E+001	-2.3860079E-001	-2.3866454E-001	9.871715006533943E-001	2.3560283E-004
2	1	0	1	2.971709924928291E+001	-2.3359321E-001	-2.3365675E-001	9.892747457888502E-001	2.3115073E-004
2	1	0	1	2.976719924801728E+001	-2.2858235E-001	-2.2863792E-001	9.905052483914343E-001	2.2646706E-004
2	1	0	1	2.981719924675417E+001	-2.2358087E-001	-2.2363441E-001	9.927121372133167E-001	2.2200459E-004
2	1	0	1	2.986719924549107E+001	-2.1858372E-001	-2.1863700E-001	9.938075248495224E-001	2.1728310E-004
2	1	0	0	2.991739924422291E+001	-2.1356137E-001	-2.1363834E-001	9.964155338483263E-001	2.1287256E-004
2	1	0	0	2.996739924295980E+001	-2.0856231E-001	-2.0863079E-001	9.991973425391336E-001	2.0846333E-004
2	1	0	0	3.001739924169669E+001	-2.0356292E-001	-2.0362365E-001	1.000883010561257E+000	2.0380346E-004
2	1	0	1	3.006759924042854E+001	-1.9854060E-001	-1.9859129E-001	1.003160933316499E+000	1.9921902E-004
2	1	0	1	3.011759923916543E+001	-1.9354355E-001	-1.9358850E-001	1.004471992406643E+000	1.9445422E-004
2	1	0	1	3.016759923790232E+001	-1.8854195E-001	-1.8860611E-001	1.006041865734831E+000	1.8974565E-004
2	1	0	0	3.021769923663669E+001	-1.8353108E-001	-1.8357942E-001	1.006270778554605E+000	1.8473060E-004
2	1	0	0	3.026779923537106E+001	-1.7852363E-001	-1.7856646E-001	1.007842080389121E+000	1.7996680E-004
2	1	0	0	3.031779923410795E+001	-1.7352094E-001	-1.7356931E-001	1.009336122684081E+000	1.7518977E-004
2	1	0	1	3.036789923284232E+001	-1.6851214E-001	-1.6855076E-001	1.010010345001920E+000	1.7023801E-004
2	1	0	1	3.041799923157669E+001	-1.6350272E-001	-1.6354105E-001	1.010591539413806E+000	1.6527320E-004
2	1	0	1	3.046799923031358E+001	-1.5850024E-001	-1.5855612E-001	1.009585476019161E+000	1.6007596E-004
2	1	0	0	3.051809922904795E+001	-1.5349352E-001	-1.5352613E-001	1.010744587925814E+000	1.5517570E-004
2	1	0	0	3.056819922778232E+001	-1.4848188E-001	-1.4851469E-001	1.012538427791212E+000	1.5037683E-004
2	1	0	0	3.061819922651921E+001	-1.4348087E-001	-1.4351241E-001	1.014172764390189E+000	1.4554638E-004
2	1	0	0	3.066819922525610E+001	-1.3848318E-001	-1.3850228E-001	1.015630359100184E+000	1.4066712E-004
2	1	0	1	3.071839922398794E+001	-1.3346107E-001	-1.3347983E-001	1.017277597069825E+000	1.3578605E-004
2	1	0	1	3.076839922272484E+001	-1.2846228E-001	-1.2847936E-001	1.016589181941782E+000	1.3061073E-004
2	1	0	1	3.081839922146173E+001	-1.2346255E-001	-1.2349518E-001	1.017561924876034E+000	1.2566400E-004
2	1	0	0	3.086859922019357E+001	-1.1844010E-001	-1.1845224E-001	1.018942205790534E+000	1.2069599E-004
2	1	0	0	3.093359921855154E+001	-1.1194178E-001	-1.1201464E-001	1.023670706867588E+000	1.1466610E-004
2	1	0	1	3.099869921690697E+001	-1.0543360E-001	-1.0549060E-001	1.018919974659461E+000	1.0748648E-004
2	1	0	1	3.104879921564134E+001	-1.0042171E-001	-1.0048386E-001	1.018877260865449E+000	1.0238073E-004
2	1	0	1	3.109879921437823E+001	-9.5421076E-002	-9.5485233E-002	1.020115966716188E+000	9.7406009E-005
2	1	0	1	3.114879921311513E+001	-9.0423189E-002	-9.0488598E-002	1.021371389462914E+000	9.2422466E-005
2	1	0	0	3.119899921184697E+001	-8.5400768E-002	-8.5465640E-002	1.021727423613934E+000	8.7322587E-005
2	1	0	0	3.124899921058386E+001	-8.0402337E-002	-8.0467977E-002	1.022579050628837E+000	8.2284867E-005
2	1	0	0	3.129899920932075E+001	-7.5402208E-002	-7.5464204E-002	1.024929149878123E+000	7.7345459E-005
2	1	0	1	3.134909920805512E+001	-7.0389889E-002	-7.0453517E-002	1.026814806259060E+000	7.2342715E-005
2	1	0	1	3.139919920678949E+001	-6.5383628E-002	-6.5458350E-002	1.026371933455081E+000	6.7184614E-005
2	1	0	1	3.144919920552638E+001	-6.0381472E-002	-6.0438234E-002	1.026229585928700E+000	6.2023508E-005
2	1	0	0	3.149929920426075E+001	-5.5371176E-002	-5.5437088E-002	1.026997309158340E+000	5.6933739E-005
2	1	0	0	3.154939920299512E+001	-5.0362915E-002	-5.0420258E-002	1.028404729397639E+000	5.1852432E-005
2	1	0	0	3.159939920173201E+001	-4.5360524E-002	-4.5437261E-002	1.029628537416295E+000	4.6783502E-005
2	1	0	1	3.164949920046638E+001	-4.0352467E-002	-4.0409289E-002	1.030430350268244E+000	4.1638959E-005
2	1	0	1	3.169959919920075E+001	-3.5342202E-002	-3.5396092E-002	1.031829562545173E+000	3.6522735E-005
2	1	0	1	3.174959919793764E+001	-3.0339990E-002	-3.0407785E-002	1.033598542462248E+000	3.1429441E-005
2	1	0	1	3.179959919667454E+001	-2.5343653E-002	-2.5421748E-002	1.033951510935949E+000	2.6284855E-005
2	1	0	0	3.184979919540638E+001	-2.0321259E-002	-2.0382131E-002	1.035140636477823E+000	2.1098371E-005
2	1	0	0	3.189979919414327E+001	-1.5321273E-002	-1.5374766E-002	1.035270563485144E+000	1.5917043E-005
2	1	0	0	3.194979919288016E+001	-1.0322704E-002	-1.0419254E-002	1.034934188926522E+000	1.0783242E-005
2	1	0	1	3.199999919161201E+001	-5.3003137E-003	-5.3943233E-003	1.035489882377881E+000	5.5857672E-006
2	1	0	1	3.204999919034890E+001	-3.0255321E-004	-3.7632204E-004	1.035604718043946E+000	3.8972090E-007
2	1	0	1	3.209999918908579E+001	4.6980185E-003	4.6217954E-003	1.035713826884511E+000	4.7868575E-006
2	1	0	0	3.215009918782016E+001	9.7098900E-003	9.6355574E-003	1.034741272197484E+000	9.9703093E-006
2	1	0	0	3.220019918655453E+001	1.4716511E-002	1.4645395E-002	1.034738674241011E+000	1.5154156E-005
2	1	0	0	3.225019918529142E+001	1.9718898E-002	1.9656645E-002	1.034963505868994E+000	2.0343910E-005
2	1	0	1	3.230029918402579E+001	2.4728544E-002	2.4665464E-002	1.034958132318342E+000	2.5527723E-005
2	1	0	1	3.235039918276016E+001	2.9737379E-002	2.9667336E-002	1.035496323085308E+000	3.0720417E-005
2	1	0	1	3.240039918149705E+001	3.4739550E-002	3.4660630E-002	1.036176415958943E+000	3.5914527E-005
2	1	0	0	3.245049918023142E+001	3.9747208E-002	3.9680503E-002	1.035490361533139E+000	4.1088777E-005
2	1	0	0	3.250059917896579E+001	4.4758081E-002	4.4673331E-002	1.036286726961697E+000	4.6294379E-005
2	1	0	0	3.255059917770268E+001	4.9759638E-002	4.9683806E-002	1.036366201163309E+000	5.1490617E-005
2	1	0	0	3.260059917643957E+001	5.4756582E-002	5.4682367E-002	1.037413122542081E+000	5.6728204E-005
2	1	0	1	3.265079917517141E+001	5.9778955E-002	5.9706137E-002	1.037947880194642E+000	6.1971856E-005
2	1	0	1	3.270079917390831E+001	6.4778276E-002	6.4711697E-002	1.037371718355086E+000	6.7130088E-005
2	1	0	1	3.275079917264520E+001	6.9777265E-002	6.9707431E-002	1.037612097789440E+000	7.2329276E-005
2	1	0	0	3.280099917137704E+001	7.4799791E-002	7.4730657E-002	1.039955116427578E+000	7.7716526E-005
2	1	0	0	3.285099917011394E+001	7.9796910E-002	7.9738401E-002	1.041398025119392E+000	8.3039413E-005
2	1	0	0	3.290099916885083E+001	8.4798105E-002	8.4731683E-002	1.042784790955970E+000	8.8356908E-005
2	1	0	1	3.295109916758520E+001	8.9809284E-002	8.9746296E-002	1.042863878603114E+000	9.3593168E-005
2	1	0	1	3.300119916631957E+001	9.4816588E-002	9.4752856E-002	1.042120604231036E+000	9.8743905E-005
2	1	0	1	3.303939916535455E+001	9.8640420E-002	9.8567441E-002	1.041080700632380E+000	1.0261666E-004
2	1	0	0	3.305299916501099E+001	9.9997252E-002	9.9898703E-002	1.043366154034931E+000	1.0423092E-004