EC-Lab ASCII FILE
Nb header lines : 55                          

I-V Characterization

Run on channel : 1 (SN 6514)
User : 
CE vs. WE compliance from -10 V to 10 V
Electrode connection : standard
Ewe ctrl range : min = -1.10 V, max = 0.20 V
Safety Limits :
	Do not start on E overload
Acquisition started on : 06/15/2016 18:37:38
Saved on :
	File : B125-G54-UN-G-D1GB-C9 FW 10mVs_C01.mpr
	Directory : E:\EC-Lab measurements\B125-G54-UN-G-D1GB\
	Host : 10.0.2.15
Device : VSP (SN 0295)
Address : USB
EC-Lab for windows v11.01 (software)
Internet server v11.00 (firmware)
Command interpretor v11.00 (firmware)
Electrode material : 
Initial state : 
Electrolyte : 
Comments : 
Electrode surface area : 0.001 cm²
Characteristic mass : 0.001 g
Equivalent Weight : 0.000 g/eq.
Density : 0.000 g/cm3
tR (h:m:s)          0:00:0.0000         
dER/dt (mV/h)       0.0                 
dER (mV)            0                   
dtR (s)             0.0000              
dE/dt               10.000              
dE/dt unit          mV/s                
Ei (V)              0.100               
vs.                 Ref                 
EL (V)              -1.000              
vs.                 Ref                 
record              <I>                 
dI                  0.000               
unit dI             µA                  
tI (s)              0.1000              
step percent        100                 
N                   100                 
E range min (V)     -1.100              
E range max (V)     0.200               
I Range             Auto                
I Range min         Unset               
I Range max         Unset               
I Range init        Unset               
Bandwidth           5                   

mode	ox/red	error	control changes	time/s	control/V	Ewe/V	<I>/mA	P/W
2	0	0	0	1.449999963369919E-001	9.9096134E-002	9.9172980E-002	1.110076193809509E+000	1.1008956E-004
2	0	0	1	3.977999899507267E-001	9.6567996E-002	9.6495695E-002	1.114019707445017E+000	1.0749810E-004
2	0	0	0	8.983999773045070E-001	9.1562025E-002	9.1491260E-002	1.115177972752262E+000	1.0202904E-004
2	0	0	1	1.398999964658287E+000	8.6556040E-002	8.6476997E-002	1.107065456085724E+000	9.5735697E-005
2	0	0	0	1.899699952009541E+000	8.1549041E-002	8.1498146E-002	1.098966114586279E+000	8.9563699E-005
2	0	0	0	2.400399939360796E+000	7.6542102E-002	7.6479957E-002	1.089709918282232E+000	8.3340965E-005
2	0	0	1	2.900999926714576E+000	7.1536116E-002	7.1476988E-002	1.084836643510567E+000	7.7540855E-005
2	0	0	0	3.401599914068356E+000	6.6530131E-002	6.6463910E-002	1.080578540327423E+000	7.1819471E-005
2	0	0	1	3.902199901422136E+000	6.1524101E-002	6.1438046E-002	1.077008012656946E+000	6.6169268E-005
2	0	0	0	4.402799888775917E+000	5.6518085E-002	5.6445118E-002	1.076763277417183E+000	6.0778031E-005
2	0	0	1	4.903399876129697E+000	5.1512111E-002	5.1429484E-002	1.074884767497759E+000	5.5280769E-005
2	0	0	0	5.403999863483477E+000	4.6506125E-002	4.6428550E-002	1.073567408751686E+000	4.9844177E-005
2	0	0	1	5.904599850837258E+000	4.1500106E-002	4.1421115E-002	1.068833069192166E+000	4.4272259E-005
2	0	0	0	6.405299838188512E+000	3.6493141E-002	3.6429640E-002	1.067836864291792E+000	3.8900911E-005
2	0	0	0	6.905999825539766E+000	3.1486209E-002	3.1417780E-002	1.065021142966484E+000	3.3460601E-005
2	0	0	1	7.406599812893546E+000	2.6480207E-002	2.6404381E-002	1.062698084884854E+000	2.8059885E-005
2	0	0	0	7.907199800247326E+000	2.1474186E-002	2.1399900E-002	1.061106617057415E+000	2.2707576E-005
2	0	0	1	8.407799787601107E+000	1.6468218E-002	1.6387634E-002	1.060646454415149E+000	1.7381486E-005
2	0	0	0	8.908399774954887E+000	1.1462180E-002	1.1385296E-002	1.059586484147538E+000	1.2063706E-005
2	0	0	1	9.408999762308667E+000	6.4562061E-003	6.3774483E-003	1.055976943559262E+000	6.7344386E-006
2	0	0	0	9.909599749662448E+000	1.4497692E-003	1.3724589E-003	1.056005054326935E+000	1.4493235E-006
2	0	0	1	1.041019973701623E+001	-3.5557766E-003	-3.6464571E-003	1.055118738718580E+000	3.8474454E-006
2	0	0	0	1.091089972436748E+001	-8.5627632E-003	-8.6482279E-003	1.052384019255449E+000	9.1012571E-006
2	0	0	0	1.141159971171874E+001	-1.3569770E-002	-1.3656493E-002	1.050258442340787E+000	1.4342847E-005
2	0	0	1	1.191219969907252E+001	-1.8575810E-002	-1.8627647E-002	1.049101159134199E+000	1.9542287E-005
2	0	0	0	1.241279968642630E+001	-2.3581808E-002	-2.3654895E-002	1.049326742415232E+000	2.4821713E-005
2	0	0	1	1.291339967378008E+001	-2.8587800E-002	-2.8639223E-002	1.044749911777163E+000	2.9920826E-005
2	0	0	0	1.341399966113386E+001	-3.3593837E-002	-3.3658512E-002	1.044843594253781E+000	3.5167879E-005
2	0	0	1	1.391459964848764E+001	-3.8599845E-002	-3.8658220E-002	1.043342963989351E+000	4.0333784E-005
2	0	0	0	1.441519963584142E+001	-4.3605853E-002	-4.3678507E-002	1.042161628234098E+000	4.5520064E-005
2	0	0	1	1.491579962319520E+001	-4.8611853E-002	-4.8682977E-002	1.041012388927884E+000	5.0679580E-005
2	0	0	1	1.541659961054393E+001	-5.3619850E-002	-5.3677943E-002	1.037405246856626E+000	5.5685778E-005
2	0	0	0	1.591719959789771E+001	-5.8625840E-002	-5.8697637E-002	1.036385125779283E+000	6.0833358E-005
2	0	0	1	1.641779958525149E+001	-6.3631840E-002	-6.3705400E-002	1.038046100346760E+000	6.6129141E-005
2	0	0	0	1.691839957260527E+001	-6.8637885E-002	-6.8706080E-002	1.035401283741152E+000	7.1138362E-005
2	0	0	1	1.741899955995905E+001	-7.3643900E-002	-7.3711924E-002	1.035296125003246E+000	7.6313670E-005
2	0	0	0	1.791959954731283E+001	-7.8649938E-002	-7.8713402E-002	1.034447077372059E+000	8.1424849E-005
2	0	0	1	1.842019953466661E+001	-8.3655953E-002	-8.3739072E-002	1.029218450912653E+000	8.6185799E-005
2	0	0	0	1.892079952202039E+001	-8.8661961E-002	-8.8733621E-002	1.030546018911213E+000	9.1444082E-005
2	0	0	1	1.942149950937164E+001	-9.3668915E-002	-9.3724824E-002	1.027318297683191E+000	9.6285228E-005
2	0	0	1	1.992219949672290E+001	-9.8675951E-002	-9.8739430E-002	1.024731298092048E+000	1.0118139E-004
2	0	0	0	2.042279948407668E+001	-1.0368194E-001	-1.0374973E-001	1.024573627476460E+000	1.0629924E-004
2	0	0	1	2.092339947143046E+001	-1.0868797E-001	-1.0875156E-001	1.025265530416355E+000	1.1149923E-004
2	0	0	0	2.142399945878424E+001	-1.1369399E-001	-1.1375944E-001	1.023048907880657E+000	1.1638147E-004
2	0	0	1	2.192459944613802E+001	-1.1869998E-001	-1.1874836E-001	1.018238760297253E+000	1.2091418E-004
2	0	0	0	2.242519943349180E+001	-1.2370600E-001	-1.2377308E-001	1.017672517311288E+000	1.2596046E-004
2	0	0	1	2.292579942084558E+001	-1.2871203E-001	-1.2878489E-001	1.015313558365218E+000	1.3075705E-004
2	0	0	0	2.342639940819936E+001	-1.3371804E-001	-1.3378413E-001	1.015674495508298E+000	1.3588113E-004
2	0	0	1	2.392709939555061E+001	-1.3872500E-001	-1.3877311E-001	1.017142574902081E+000	1.4115204E-004
2	0	0	1	2.442779938290187E+001	-1.4373203E-001	-1.4382331E-001	1.012690458895356E+000	1.4564849E-004
2	0	0	0	2.492839937025565E+001	-1.4873804E-001	-1.4881848E-001	1.009484916882576E+000	1.5023001E-004
2	0	0	1	2.542899935760943E+001	-1.5374410E-001	-1.5381272E-001	1.011593137846837E+000	1.5559589E-004
2	0	0	0	2.592959934496321E+001	-1.5875009E-001	-1.5884247E-001	1.007001403002445E+000	1.5995459E-004
2	0	0	1	2.643019933231699E+001	-1.6375609E-001	-1.6384888E-001	1.004559645033303E+000	1.6459597E-004
2	0	0	0	2.693079931967077E+001	-1.6876210E-001	-1.6885521E-001	1.005805281103749E+000	1.6983546E-004
2	0	0	1	2.743139930702455E+001	-1.7376815E-001	-1.7385751E-001	1.001333012663648E+000	1.7408926E-004
2	0	0	0	2.793199929437833E+001	-1.7877416E-001	-1.7887253E-001	9.999725469849494E-001	1.7886762E-004
2	0	0	1	2.843269928172958E+001	-1.8378113E-001	-1.8389365E-001	9.985016790319943E-001	1.8361812E-004
2	0	0	1	2.893339926908084E+001	-1.8878813E-001	-1.8888314E-001	9.969748395058122E-001	1.8831174E-004
2	0	0	0	2.943399925643462E+001	-1.9379413E-001	-1.9389971E-001	9.947190615155552E-001	1.9287573E-004
2	0	0	1	2.993459924378840E+001	-1.9880015E-001	-1.9889581E-001	9.930197214194560E-001	1.9750747E-004
2	0	0	0	3.043519923114218E+001	-2.0380621E-001	-2.0392571E-001	9.925045877652918E-001	2.0239720E-004
2	0	0	1	3.093579921849596E+001	-2.0881216E-001	-2.0892040E-001	9.892439129393251E-001	2.0667324E-004
2	0	0	0	3.143639920584974E+001	-2.1381824E-001	-2.1392605E-001	9.858453931688138E-001	2.1089801E-004
2	0	0	1	3.193699919320352E+001	-2.1882422E-001	-2.1893962E-001	9.858507096543043E-001	2.1584178E-004
2	0	0	0	3.243769918055477E+001	-2.2383118E-001	-2.2393978E-001	9.825171616763448E-001	2.2002467E-004
2	0	0	0	3.293839916790603E+001	-2.2883818E-001	-2.2895835E-001	9.797852994497109E-001	2.2433003E-004
2	0	0	1	3.343899915525981E+001	-2.3384421E-001	-2.3394682E-001	9.788025474661826E-001	2.2898774E-004
2	0	0	0	3.393959914261359E+001	-2.3885021E-001	-2.3896824E-001	9.771580556821924E-001	2.3350974E-004
2	0	0	1	3.444019912996737E+001	-2.4385624E-001	-2.4396080E-001	9.731984215659351E-001	2.3742227E-004
2	0	0	0	3.494079911732115E+001	-2.4886225E-001	-2.4894547E-001	9.724871063022320E-001	2.4209627E-004
2	0	0	1	3.544139910467493E+001	-2.5386825E-001	-2.5394753E-001	9.707078117666335E-001	2.4650886E-004
2	0	0	0	3.594199909202871E+001	-2.5887424E-001	-2.5894994E-001	9.660209736508278E-001	2.5015106E-004
2	0	0	1	3.644259907938249E+001	-2.6388031E-001	-2.6397306E-001	9.630379794314878E-001	2.5421608E-004
2	0	0	0	3.694329906673374E+001	-2.6888725E-001	-2.6898015E-001	9.623178887056958E-001	2.5884440E-004
2	0	0	0	3.744399905408500E+001	-2.7389428E-001	-2.7397498E-001	9.611729292774935E-001	2.6333734E-004
2	0	0	1	3.794459904143878E+001	-2.7890033E-001	-2.7897698E-001	9.538894215457745E-001	2.6611317E-004
2	0	0	0	3.844519902879256E+001	-2.8390631E-001	-2.8399327E-001	9.520793760294897E-001	2.7038413E-004
2	0	0	1	3.894579901614634E+001	-2.8891230E-001	-2.8899324E-001	9.512994088251432E-001	2.7491909E-004
2	0	0	0	3.944639900350012E+001	-2.9391834E-001	-2.9400361E-001	9.477825999767120E-001	2.7865151E-004
2	0	0	1	3.994699899085390E+001	-2.9892442E-001	-2.9901996E-001	9.434765296873184E-001	2.8211833E-004
2	0	0	0	4.044759897820768E+001	-3.0393046E-001	-3.0401909E-001	9.402806239882580E-001	2.8586327E-004
2	0	0	1	4.094819896556146E+001	-3.0893651E-001	-3.0903181E-001	9.379499331370909E-001	2.8985637E-004
2	0	0	0	4.144889895291271E+001	-3.1394339E-001	-3.1403014E-001	9.364462900013422E-001	2.9407235E-004
2	0	0	0	4.194959894026397E+001	-3.1895047E-001	-3.1907380E-001	9.303103277482840E-001	2.9683765E-004
2	0	0	1	4.245019892761775E+001	-3.2395646E-001	-3.2404435E-001	9.266559276753394E-001	3.0027761E-004
2	0	0	0	4.295079891497153E+001	-3.2896248E-001	-3.2902685E-001	9.237448122970449E-001	3.0393683E-004
2	0	0	1	4.345139890232531E+001	-3.3396849E-001	-3.3402696E-001	9.229978356268562E-001	3.0830616E-004
2	0	0	0	4.395199888967909E+001	-3.3897448E-001	-3.3904541E-001	9.176059496190394E-001	3.1111008E-004
2	0	0	1	4.445259887703287E+001	-3.4398049E-001	-3.4405774E-001	9.107550216235420E-001	3.1335233E-004
2	0	0	0	4.495319886438665E+001	-3.4898654E-001	-3.4907192E-001	9.074673619955143E-001	3.1677139E-004
2	0	0	1	4.545379885174043E+001	-3.5399249E-001	-3.5408524E-001	9.037159725355273E-001	3.1999248E-004
2	0	0	1	4.595459883908916E+001	-3.5900047E-001	-3.5910302E-001	9.001895031330154E-001	3.2326079E-004
2	0	0	0	4.645519882644294E+001	-3.6400646E-001	-3.6409342E-001	8.976332570282248E-001	3.2682237E-004
2	0	0	1	4.695579881379672E+001	-3.6901248E-001	-3.6909205E-001	8.899438256297287E-001	3.2847119E-004
2	0	0	0	4.745639880115050E+001	-3.7401849E-001	-3.7410045E-001	8.860518893636664E-001	3.3147240E-004
2	0	0	1	4.795699878850428E+001	-3.7902457E-001	-3.7910295E-001	8.845093665587296E-001	3.3532010E-004
2	0	0	0	4.845759877585806E+001	-3.8403058E-001	-3.8413554E-001	8.780857837517102E-001	3.3730397E-004
2	0	0	1	4.895819876321184E+001	-3.8903660E-001	-3.8911679E-001	8.731042905472144E-001	3.3973955E-004
2	0	0	0	4.945879875056562E+001	-3.9404267E-001	-3.9412379E-001	8.659799737379772E-001	3.4130330E-004
2	0	0	1	4.995949873791687E+001	-3.9904964E-001	-3.9914340E-001	8.609306875562726E-001	3.4363481E-004
2	0	0	1	5.046019872526813E+001	-4.0405661E-001	-4.0414411E-001	8.577810159850348E-001	3.4666713E-004
2	0	0	0	5.096079871262191E+001	-4.0906262E-001	-4.0913466E-001	8.532912861451498E-001	3.4911104E-004
2	0	0	1	5.146139869997569E+001	-4.1406861E-001	-4.1415367E-001	8.460712129862706E-001	3.5040348E-004
2	0	0	0	5.196199868732947E+001	-4.1907459E-001	-4.1916439E-001	8.409727987532776E-001	3.5250586E-004
2	0	0	1	5.246259867468325E+001	-4.2408061E-001	-4.2416868E-001	8.347361291896309E-001	3.5406891E-004
2	0	0	0	5.296319866203703E+001	-4.2908666E-001	-4.2916372E-001	8.308628106631062E-001	3.5657617E-004
2	0	0	1	5.346379864939081E+001	-4.3409261E-001	-4.3418020E-001	8.234741224674949E-001	3.5753616E-004
2	0	0	0	5.396439863674459E+001	-4.3909863E-001	-4.3919298E-001	8.173335008708147E-001	3.5896714E-004
2	0	0	1	5.446509862409584E+001	-4.4410557E-001	-4.4419608E-001	8.116502963064107E-001	3.6053188E-004
2	0	0	1	5.496579861144710E+001	-4.4911259E-001	-4.4920573E-001	8.042342583410029E-001	3.6126663E-004
2	0	0	0	5.546639859880088E+001	-4.5411861E-001	-4.5420626E-001	7.982083552367479E-001	3.6255122E-004
2	0	0	1	5.596699858615466E+001	-4.5912462E-001	-4.5921719E-001	7.914961060004835E-001	3.6346863E-004
2	0	0	0	5.646759857350844E+001	-4.6413067E-001	-4.6422285E-001	7.846176924127715E-001	3.6423746E-004
2	0	0	1	5.696819856086222E+001	-4.6913669E-001	-4.6921948E-001	7.778574580726456E-001	3.6498587E-004
2	0	0	0	5.746879854821600E+001	-4.7414276E-001	-4.7423616E-001	7.722326570414699E-001	3.6622066E-004
2	0	0	1	5.796939853556978E+001	-4.7914875E-001	-4.7923312E-001	7.647649830525314E-001	3.6650070E-004
2	0	0	0	5.846999852292356E+001	-4.8415473E-001	-4.8425302E-001	7.559137164149057E-001	3.6605349E-004
2	0	0	1	5.897069851027481E+001	-4.8916173E-001	-4.8925063E-001	7.479524145678278E-001	3.6593620E-004
2	0	0	1	5.947139849762607E+001	-4.9416873E-001	-4.9427947E-001	7.416864423310514E-001	3.6660038E-004
2	0	0	0	5.997199848497985E+001	-4.9917471E-001	-4.9927759E-001	7.342559001585860E-001	3.6659752E-004
2	0	0	1	6.047259847233363E+001	-5.0418067E-001	-5.0429124E-001	7.243524929883582E-001	3.6528462E-004
2	0	0	0	6.097319845968741E+001	-5.0918669E-001	-5.0930047E-001	7.175771476827819E-001	3.6546239E-004
2	0	0	1	6.147379844704119E+001	-5.1419276E-001	-5.1431394E-001	7.089766703368188E-001	3.6463659E-004
2	0	0	0	6.197439843439497E+001	-5.1919878E-001	-5.1931244E-001	7.002540372300290E-001	3.6365064E-004
2	0	0	1	6.247499842174875E+001	-5.2420479E-001	-5.2431583E-001	6.923784560036177E-001	3.6302500E-004
2	0	0	0	6.297559840910253E+001	-5.2921081E-001	-5.2932549E-001	6.835366475749884E-001	3.6181338E-004
2	0	0	0	6.347639839645126E+001	-5.3421879E-001	-5.3432590E-001	6.753814157076650E-001	3.6087379E-004
2	0	0	1	6.397699838380504E+001	-5.3922480E-001	-5.3932446E-001	6.643967814593790E-001	3.5832543E-004
2	0	0	0	6.447759837115882E+001	-5.4423082E-001	-5.4433733E-001	6.560383292879042E-001	3.5710615E-004
2	0	0	1	6.497819835851260E+001	-5.4923677E-001	-5.4934919E-001	6.463804078627291E-001	3.5508856E-004
2	0	0	0	6.547879834586638E+001	-5.5424285E-001	-5.5437559E-001	6.377016843759704E-001	3.5352624E-004
2	0	0	1	6.597939833322016E+001	-5.5924892E-001	-5.5938262E-001	6.267570665131164E-001	3.5059699E-004
2	0	0	0	6.647999832057394E+001	-5.6425500E-001	-5.6437200E-001	6.167616069714281E-001	3.4808298E-004
2	0	0	1	6.698059830792772E+001	-5.6926101E-001	-5.6938428E-001	6.073328169497376E-001	3.4580575E-004
2	0	0	0	6.748129829527898E+001	-5.7426798E-001	-5.7438689E-001	5.976938288435711E-001	3.4330750E-004
2	0	0	0	6.798199828263023E+001	-5.7927501E-001	-5.7939714E-001	5.860298926874905E-001	3.3954406E-004
2	0	0	1	6.848259826998401E+001	-5.8428079E-001	-5.8440983E-001	5.756713857792413E-001	3.3642803E-004
2	0	0	0	6.898319825733779E+001	-5.8928698E-001	-5.8939737E-001	5.666733549295451E-001	3.3399579E-004
2	0	0	1	6.948379824469157E+001	-5.9429300E-001	-5.9442586E-001	5.556217848219003E-001	3.3027594E-004
2	0	0	0	6.998439823204535E+001	-5.9929913E-001	-5.9941602E-001	5.430748894432007E-001	3.2552780E-004
2	0	0	1	7.048499821939913E+001	-6.0430497E-001	-6.0442495E-001	5.331132230028306E-001	3.2222693E-004
2	0	0	0	7.098559820675291E+001	-6.0931104E-001	-6.0942501E-001	5.220467550517442E-001	3.1814835E-004
2	0	0	1	7.148619819410669E+001	-6.1431700E-001	-6.1443275E-001	5.107917398458781E-001	3.1384718E-004
2	0	0	0	7.198689818145795E+001	-6.1932409E-001	-6.1945605E-001	4.990895966137610E-001	3.0916408E-004
2	0	0	0	7.248759816880920E+001	-6.2433094E-001	-6.2444246E-001	4.875015336830362E-001	3.0441667E-004
2	0	0	1	7.300569815572089E+001	-6.2951219E-001	-6.2958306E-001	4.764112884625735E-001	2.9994047E-004
2	0	0	1	7.352379814263259E+001	-6.3469303E-001	-6.3475543E-001	4.643556157399464E-001	2.9475224E-004
2	0	0	0	7.402439812998637E+001	-6.3969916E-001	-6.3975322E-001	4.513370647220616E-001	2.8874434E-004
2	0	0	1	7.452499811734015E+001	-6.4470506E-001	-6.4475137E-001	4.399088173276020E-001	2.8363182E-004
2	0	0	0	7.502559810469393E+001	-6.4971119E-001	-6.4975077E-001	4.286615967423257E-001	2.7852319E-004
2	0	0	1	7.552629809204518E+001	-6.5471822E-001	-6.5476900E-001	4.165462529168704E-001	2.7274157E-004
2	0	0	1	7.602699807939644E+001	-6.5972525E-001	-6.5975088E-001	4.036899689955709E-001	2.6633480E-004
2	0	0	0	7.652759806675022E+001	-6.6473126E-001	-6.6476297E-001	3.911484047301599E-001	2.6002098E-004
2	0	0	1	7.702819805410400E+001	-6.6973722E-001	-6.6977763E-001	3.786840938527591E-001	2.5363415E-004
2	0	0	0	7.752879804145778E+001	-6.7474329E-001	-6.7479211E-001	3.660389110176236E-001	2.4700016E-004
2	0	0	1	7.802939802881156E+001	-6.7974907E-001	-6.7978501E-001	3.536916473420018E-001	2.4043428E-004
2	0	0	0	7.852999801616534E+001	-6.8475527E-001	-6.8478906E-001	3.411302307847315E-001	2.3360224E-004
2	0	0	1	7.903059800351912E+001	-6.8976116E-001	-6.8979126E-001	3.276513110866981E-001	2.2601100E-004
2	0	0	0	7.953119799087290E+001	-6.9476730E-001	-6.9480181E-001	3.150453242604387E-001	2.1889406E-004
2	0	0	0	8.003199797822163E+001	-6.9977516E-001	-6.9979596E-001	3.031284591826831E-001	2.1212807E-004
2	0	0	1	8.053259796557541E+001	-7.0478129E-001	-7.0481747E-001	2.896630716798509E-001	2.0415960E-004
2	0	0	0	8.103319795292919E+001	-7.0978719E-001	-7.0984662E-001	2.758025651000997E-001	1.9577752E-004
2	0	0	1	8.153379794028297E+001	-7.1479326E-001	-7.1483445E-001	2.632692684877851E-001	1.8819394E-004
2	0	0	0	8.203439792763675E+001	-7.1979916E-001	-7.1982390E-001	2.504933842792489E-001	1.8031112E-004
2	0	0	1	8.253499791499053E+001	-7.2480541E-001	-7.2483176E-001	2.368982544249558E-001	1.7171138E-004
2	0	0	0	8.303559790234431E+001	-7.2981125E-001	-7.2984099E-001	2.243555063926543E-001	1.6374384E-004
2	0	0	1	8.353619788969809E+001	-7.3481739E-001	-7.3483264E-001	2.114163775917913E-001	1.5535565E-004
2	0	0	0	8.403689787704934E+001	-7.3982447E-001	-7.3984873E-001	1.975959775566345E-001	1.4619113E-004
2	0	0	0	8.453759786440060E+001	-7.4483138E-001	-7.4486256E-001	1.842416231605689E-001	1.3723469E-004
2	0	0	1	8.503819785175438E+001	-7.4983752E-001	-7.4986523E-001	1.711026869895106E-001	1.2830396E-004
2	0	0	0	8.553879783910816E+001	-7.5484324E-001	-7.5487006E-001	1.581057995694009E-001	1.1934934E-004
2	0	0	1	8.603939782646194E+001	-7.5984943E-001	-7.5989640E-001	1.445031554128171E-001	1.0980743E-004
2	0	0	0	8.653999781381572E+001	-7.6485527E-001	-7.6489115E-001	1.311351047365263E-001	1.0030408E-004
2	0	0	1	8.704059780116950E+001	-7.6986146E-001	-7.6992142E-001	1.179687843308322E-001	9.0826696E-005
2	0	0	0	8.754119778852328E+001	-7.7486718E-001	-7.7491063E-001	1.045687179590673E-001	8.1031409E-005
2	0	0	1	8.804179777587706E+001	-7.7987343E-001	-7.7991843E-001	9.136714572711169E-002	7.1258924E-005
2	0	0	0	8.854249776322831E+001	-7.8488022E-001	-7.8491372E-001	7.801382473497509E-002	6.1234125E-005
2	0	0	0	8.904319775057957E+001	-7.8988737E-001	-7.8992409E-001	6.474930533449608E-002	5.1147035E-005
2	0	0	1	8.956129773749126E+001	-7.9506809E-001	-7.9512715E-001	5.116393956330934E-002	4.0681836E-005
2	0	0	1	9.007939772440295E+001	-8.0024952E-001	-8.0029851E-001	3.759729284962610E-002	3.0089057E-005
2	0	0	0	9.057999771175673E+001	-8.0525541E-001	-8.0530792E-001	2.434832810249822E-002	1.9607902E-005
2	0	0	1	9.108059769911051E+001	-8.1026155E-001	-8.1031966E-001	1.122553230866863E-002	9.0962694E-006
2	0	0	0	9.159879768601968E+001	-8.1544346E-001	-8.1549740E-001	-2.243888756326307E-003	1.8298855E-006
2	0	0	1	9.213449767248676E+001	-8.2080048E-001	-8.2085657E-001	-1.622263391613699E-002	1.3316456E-005
2	0	0	1	9.265259765939845E+001	-8.2598138E-001	-8.2604420E-001	-2.959309454720194E-002	2.4445204E-005
2	0	0	0	9.315319764675223E+001	-8.3098757E-001	-8.3105379E-001	-4.254494586919232E-002	3.5357138E-005
2	0	0	1	9.365379763410601E+001	-8.3599347E-001	-8.3603269E-001	-5.534422902434732E-002	4.6269586E-005
2	0	0	0	9.415439762145979E+001	-8.4099948E-001	-8.4104043E-001	-6.802748864251282E-002	5.7213867E-005
2	0	0	1	9.465509760881105E+001	-8.4600663E-001	-8.4604949E-001	-8.087237256326446E-002	6.8422029E-005
2	0	0	1	9.515579759616230E+001	-8.5101336E-001	-8.5107470E-001	-9.357016083507230E-002	7.9635196E-005
2	0	0	0	9.567389758307399E+001	-8.5619467E-001	-8.5626346E-001	-1.064435311728123E-001	9.1143709E-005
2	0	0	0	9.619199756998569E+001	-8.6137545E-001	-8.6143851E-001	-1.194956137141796E-001	1.0293812E-004
2	0	0	1	9.669259755733947E+001	-8.6638170E-001	-8.6644948E-001	-1.317117358669178E-001	1.1412156E-004
2	0	0	0	9.719319754469325E+001	-8.7138736E-001	-8.7146604E-001	-1.439826353798365E-001	1.2547597E-004
2	0	0	1	9.769379753204703E+001	-8.7639368E-001	-8.7643969E-001	-1.564140373175249E-001	1.3708747E-004
2	0	0	0	9.819449751939828E+001	-8.8140047E-001	-8.8144106E-001	-1.683874889842895E-001	1.4842364E-004
2	0	0	0	9.869519750674954E+001	-8.8640755E-001	-8.8646394E-001	-1.805328443795365E-001	1.6003585E-004
2	0	0	1	9.919579749410332E+001	-8.9141333E-001	-8.9146852E-001	-1.925235384904168E-001	1.7162868E-004
2	0	0	0	9.969639748145710E+001	-8.9641970E-001	-8.9646798E-001	-2.045947992749002E-001	1.8341269E-004
2	0	0	1	1.001969974688109E+002	-9.0142542E-001	-9.0147591E-001	-2.166362835823327E-001	1.9529239E-004
2	0	0	0	1.006975974561647E+002	-9.0643167E-001	-9.0649050E-001	-2.281393217161929E-001	2.0680613E-004
2	0	0	1	1.011981974435184E+002	-9.1143745E-001	-9.1150045E-001	-2.401972907557410E-001	2.1893994E-004
2	0	0	0	1.016987974308722E+002	-9.1644377E-001	-9.1648972E-001	-2.514344451016401E-001	2.3043709E-004
2	0	0	1	1.021994974182235E+002	-9.2145061E-001	-9.2150468E-001	-2.628481758766399E-001	2.4221583E-004
2	0	0	1	1.027001974055747E+002	-9.2645758E-001	-9.2651874E-001	-2.747274257972201E-001	2.5454012E-004
2	0	0	0	1.032007973929285E+002	-9.3146366E-001	-9.3152076E-001	-2.860467626467758E-001	2.6645849E-004
2	0	0	1	1.037013973802823E+002	-9.3646961E-001	-9.3652314E-001	-2.968918371263243E-001	2.7804606E-004
2	0	0	0	1.042019973676361E+002	-9.4147581E-001	-9.4153434E-001	-3.079146797859451E-001	2.8991225E-004
2	0	0	1	1.047025973549898E+002	-9.4648147E-001	-9.4656241E-001	-3.192368756647487E-001	3.0217762E-004
2	0	0	0	1.052031973423436E+002	-9.5148784E-001	-9.5154393E-001	-3.297153692046486E-001	3.1373865E-004
2	0	0	1	1.057037973296974E+002	-9.5649344E-001	-9.5652807E-001	-3.410737100847774E-001	3.2624658E-004
2	0	0	0	1.062043973170512E+002	-9.6149975E-001	-9.6152580E-001	-3.518426192114941E-001	3.3830575E-004
2	0	0	1	1.067050973044024E+002	-9.6650630E-001	-9.6656090E-001	-3.622624752366175E-001	3.5014874E-004
2	0	0	1	1.072057972917537E+002	-9.7151381E-001	-9.7156543E-001	-3.728559861910257E-001	3.6225398E-004
2	0	0	0	1.077063972791075E+002	-9.7651947E-001	-9.7657955E-001	-3.833311703725926E-001	3.7435337E-004
2	0	0	1	1.082069972664613E+002	-9.8152566E-001	-9.8158473E-001	-3.938415417121162E-001	3.8658883E-004
2	0	0	0	1.087075972538150E+002	-9.8653138E-001	-9.8659903E-001	-4.040546794313116E-001	3.9863997E-004
2	0	0	1	1.092081972411688E+002	-9.9153769E-001	-9.9157208E-001	-4.146408817837868E-001	4.1114632E-004
2	0	0	0	1.097087972285226E+002	-9.9654353E-001	-9.9658114E-001	-4.254378963327848E-001	4.2398338E-004
2	0	0	1	1.100066972209970E+002	-9.9952102E-001	-9.9955642E-001	-4.313090775047850E-001	4.3111775E-004
2	0	0	0	1.100521972198476E+002	-1.0000215E+000	-1.0000379E+000	-4.334977120161057E-001	4.3351416E-004