EC-Lab ASCII FILE
Nb header lines : 55                          

I-V Characterization

Run on channel : 1 (SN 6514)
User : 
CE vs. WE compliance from -10 V to 10 V
Electrode connection : standard
Ewe ctrl range : min = -1.10 V, max = 0.20 V
Safety Limits :
	Do not start on E overload
Acquisition started on : 06/15/2016 18:04:46
Saved on :
	File : B125-G54-UN-G-D1GB-C6 FW 100mVs dark_C01.mpr
	Directory : E:\EC-Lab measurements\B125-G54-UN-G-D1GB\
	Host : 10.0.2.15
Device : VSP (SN 0295)
Address : USB
EC-Lab for windows v11.01 (software)
Internet server v11.00 (firmware)
Command interpretor v11.00 (firmware)
Electrode material : 
Initial state : 
Electrolyte : 
Comments : 
Electrode surface area : 0.001 cm²
Characteristic mass : 0.001 g
Equivalent Weight : 0.000 g/eq.
Density : 0.000 g/cm3
tR (h:m:s)          0:00:0.0000         
dER/dt (mV/h)       0.0                 
dER (mV)            0                   
dtR (s)             0.0000              
dE/dt               100.000             
dE/dt unit          mV/s                
Ei (V)              0.100               
vs.                 Ref                 
EL (V)              -1.000              
vs.                 Ref                 
record              <I>                 
dI                  0.000               
unit dI             µA                  
tI (s)              0.1000              
step percent        100                 
N                   100                 
E range min (V)     -1.100              
E range max (V)     0.200               
I Range             Auto                
I Range min         Unset               
I Range max         Unset               
I Range init        Unset               
Bandwidth           5                   

mode	ox/red	error	control changes	time/s	control/V	Ewe/V	<I>/mA	P/W
2	0	0	1	8.039999796892516E-002	9.7019978E-002	9.7064927E-002	3.165093716233969E-003	3.0721958E-007
2	0	0	0	1.056999973297934E-001	9.4491579E-002	9.4451129E-002	2.934278723905882E-003	2.7714594E-007
2	0	0	0	1.710999956776504E-001	8.7955542E-002	8.7893091E-002	2.504147751802147E-003	2.2009729E-007
2	0	0	1	2.363999940280337E-001	8.1425309E-002	8.1370294E-002	2.184920682191119E-003	1.7778764E-007
2	0	0	1	2.863999927649274E-001	7.6423168E-002	7.6367080E-002	1.966013405297978E-003	1.5013870E-007
2	0	0	0	3.364999914992950E-001	7.1412876E-002	7.1359545E-002	1.769966485032932E-003	1.2630400E-007
2	0	0	0	3.865999902336625E-001	6.6404790E-002	6.6341914E-002	1.576930875416214E-003	1.0461661E-007
2	0	0	0	4.365999889705563E-001	6.1402440E-002	6.1350554E-002	1.436558133799493E-003	8.8133639E-008
2	0	0	1	4.866999877049238E-001	5.6394178E-002	5.6336142E-002	1.274294629561169E-003	7.1788847E-008
2	0	0	1	5.367999864392914E-001	5.1383875E-002	5.1315203E-002	1.121223871625467E-003	5.7535832E-008
2	0	0	1	5.867999851761851E-001	4.6381712E-002	4.6306517E-002	9.620727668385367E-004	4.4550237E-008
2	0	0	0	6.368999839105527E-001	4.1375484E-002	4.1317638E-002	8.336089245980245E-004	3.4442753E-008
2	0	0	0	6.869999826449202E-001	3.6363181E-002	3.6307283E-002	6.948206232334289E-004	2.5227049E-008
2	0	0	0	7.369999813818140E-001	3.1363018E-002	3.1294920E-002	5.746961529714215E-004	1.7985069E-008
2	0	0	0	7.869999801187078E-001	2.6364643E-002	2.6305592E-002	4.446560050166086E-004	1.1696939E-008
2	0	0	1	8.371999788505491E-001	2.1342475E-002	2.1280525E-002	3.148381827354912E-004	6.6999220E-009
2	0	0	1	8.871999775874428E-001	1.6344309E-002	1.6279878E-002	1.936475213597747E-004	3.1525580E-009
2	0	0	1	9.371999763243366E-001	1.1343927E-002	1.1267822E-002	7.089330730782620E-005	7.9881318E-010
2	0	0	0	9.872999750587041E-001	6.3318424E-003	6.2581412E-003	-5.294117937571993E-005	3.3131337E-010
2	0	0	0	1.037399973793072E+000	1.3256089E-003	1.2472278E-003	-1.767768119058473E-004	2.2048095E-010
2	0	0	0	1.087399972529965E+000	-3.6768010E-003	-3.7644873E-003	-3.014623144774698E-004	1.1348511E-009
2	0	0	1	1.137499971264333E+000	-8.6868918E-003	-8.7785302E-003	-4.274739233721008E-004	3.7525929E-009
2	0	0	1	1.187599969998701E+000	-1.3695168E-002	-1.3772117E-002	-5.497823620914972E-004	7.5716668E-009
2	0	0	1	1.237599968735594E+000	-1.8697586E-002	-1.8744482E-002	-6.662944834255388E-004	1.2489345E-008
2	0	0	0	1.287699967469962E+000	-2.3705659E-002	-2.3768419E-002	-7.924033538925556E-004	1.8834175E-008
2	0	0	0	1.337799966204329E+000	-2.8715953E-002	-2.8777217E-002	-9.318229545302523E-004	2.6815272E-008
2	0	0	0	1.387799964941223E+000	-3.3718165E-002	-3.3777002E-002	-1.060885949834304E-003	3.5833548E-008
2	0	0	0	1.437799963678117E+000	-3.8714536E-002	-3.8771819E-002	-1.192435027370576E-003	4.6232877E-008
2	0	0	1	1.487999962409958E+000	-4.3736737E-002	-4.3800414E-002	-1.314431045532808E-003	5.7572624E-008
2	0	0	1	1.537999961146852E+000	-4.8736941E-002	-4.8794884E-002	-1.446853474200788E-003	7.0599050E-008
2	0	0	1	1.587999959883746E+000	-5.3735349E-002	-5.3792756E-002	-1.571345967615822E-003	8.4527031E-008
2	0	0	0	1.638199958615587E+000	-5.8757726E-002	-5.8798205E-002	-1.698467490927228E-003	9.9866838E-008
2	0	0	0	1.688199957352481E+000	-6.3755728E-002	-6.3821591E-002	-1.846660267425227E-003	1.1785680E-007
2	0	0	0	1.738199956089375E+000	-6.8756126E-002	-6.8800829E-002	-2.008228070663478E-003	1.3816776E-007
2	0	0	1	1.788299954823742E+000	-7.3768191E-002	-7.3805295E-002	-2.129468128657404E-003	1.5716603E-007
2	0	0	1	1.838399953558110E+000	-7.8774698E-002	-7.8816392E-002	-2.256082605382635E-003	1.7781629E-007
2	0	0	1	1.888399952295003E+000	-8.3776891E-002	-8.3822571E-002	-2.413825895043853E-003	2.0233310E-007
2	0	0	0	1.938499951029371E+000	-8.8786975E-002	-8.8843532E-002	-2.557732688010669E-003	2.2723800E-007
2	0	0	0	1.988599949763739E+000	-9.3795493E-002	-9.3841620E-002	-2.663270490734913E-003	2.4992562E-007
2	0	0	0	2.038599948500632E+000	-9.8797724E-002	-9.8838523E-002	-2.781331158087964E-003	2.7490267E-007
2	0	0	1	2.088699947235000E+000	-1.0380574E-001	-1.0385595E-001	-2.923739732721413E-003	3.0364777E-007
2	0	0	1	2.138799945969367E+000	-1.0881621E-001	-1.0888071E-001	-3.090791164479215E-003	3.3652753E-007
2	0	0	1	2.188799944706261E+000	-1.1381831E-001	-1.1386514E-001	-3.247401335027378E-003	3.6976579E-007
2	0	0	1	2.238799943443155E+000	-1.1881486E-001	-1.1886048E-001	-3.372253802423550E-003	4.0082773E-007
2	0	0	0	2.288999942174996E+000	-1.2383703E-001	-1.2388895E-001	-3.533290856012082E-003	4.3773568E-007
2	0	0	0	2.338999940911890E+000	-1.2883700E-001	-1.2888575E-001	-3.684134187803327E-003	4.7483238E-007
2	0	0	0	2.388999939648784E+000	-1.3383561E-001	-1.3387318E-001	-3.850636285669708E-003	5.1549694E-007
2	0	0	1	2.439199938380625E+000	-1.3885774E-001	-1.3890721E-001	-3.978084327215576E-003	5.5258459E-007
2	0	0	1	2.489199937117519E+000	-1.4385574E-001	-1.4392002E-001	-4.144565166917098E-003	5.9648590E-007
2	0	0	1	2.539199935854413E+000	-1.4885639E-001	-1.4891671E-001	-4.225314695221194E-003	6.2921993E-007
2	0	0	0	2.589299934588780E+000	-1.5386826E-001	-1.5392709E-001	-4.372097090879370E-003	6.7298419E-007
2	0	0	0	2.639399933323148E+000	-1.5887471E-001	-1.5893279E-001	-4.514002729497492E-003	7.1742306E-007
2	0	0	0	2.689399932060041E+000	-1.6387717E-001	-1.6395646E-001	-4.760225773695696E-003	7.8046980E-007
2	0	0	1	2.739499930794409E+000	-1.6888697E-001	-1.6896203E-001	-4.975953297933350E-003	8.4074719E-007
2	0	0	1	2.789599929528777E+000	-1.7389564E-001	-1.7397887E-001	-5.101532758564099E-003	8.8755888E-007
2	0	0	1	2.839599928265670E+000	-1.7889808E-001	-1.7898026E-001	-5.225178997373028E-003	9.3520390E-007
2	0	0	0	2.889699927000038E+000	-1.8390584E-001	-1.8400139E-001	-5.546173071049060E-003	1.0205035E-006
2	0	0	0	2.939799925734405E+000	-1.8891650E-001	-1.8899684E-001	-5.680743772494820E-003	1.0736426E-006
2	0	0	0	2.989799924471299E+000	-1.9391841E-001	-1.9401218E-001	-5.849672508203643E-003	1.1349077E-006
2	0	0	0	3.039799923208193E+000	-1.9891477E-001	-1.9900569E-001	-6.048196585733079E-003	1.2036255E-006
2	0	0	1	3.089999921940034E+000	-2.0393725E-001	-2.0402877E-001	-6.257895101579036E-003	1.2767906E-006
2	0	0	1	3.139999920676928E+000	-2.0893717E-001	-2.0903333E-001	-6.443606155165843E-003	1.3469285E-006
2	0	0	1	3.189999919413822E+000	-2.1393594E-001	-2.1401715E-001	-6.587657426744609E-003	1.4098716E-006
2	0	0	0	3.240199918145663E+000	-2.1895799E-001	-2.1905738E-001	-6.781189914539340E-003	1.4854697E-006
2	0	0	0	3.290199916882557E+000	-2.2395596E-001	-2.2405681E-001	-6.980086523093731E-003	1.5639359E-006
2	0	0	0	3.340199915619451E+000	-2.2895651E-001	-2.2904961E-001	-7.120879974827118E-003	1.6310348E-006
2	0	0	1	3.390299914353818E+000	-2.3396832E-001	-2.3405503E-001	-7.242770108935981E-003	1.6952067E-006
2	0	0	1	3.440399913088186E+000	-2.3897512E-001	-2.3907644E-001	-7.449405402136580E-003	1.7809773E-006
2	0	0	1	3.490399911825079E+000	-2.4397749E-001	-2.4407540E-001	-7.649781176073532E-003	1.8671234E-006
2	0	0	0	3.540499910559447E+000	-2.4898700E-001	-2.4905825E-001	-7.858869771217941E-003	1.9573163E-006
2	0	0	0	3.590599909293815E+000	-2.5399593E-001	-2.5407338E-001	-8.165446781670360E-003	2.0746227E-006
2	0	0	0	3.640599908030708E+000	-2.5899827E-001	-2.5906688E-001	-8.324268558793479E-003	2.1565422E-006
2	0	0	1	3.690699906765076E+000	-2.6400578E-001	-2.6407361E-001	-8.408931889448204E-003	2.2205770E-006
2	0	0	1	3.740799905499443E+000	-2.6901665E-001	-2.6908693E-001	-8.559036988963202E-003	2.3031250E-006
2	0	0	1	3.790799904236337E+000	-2.7401820E-001	-2.7409121E-001	-8.821442785990195E-003	2.4178801E-006
2	0	0	1	3.840799902973231E+000	-2.7901506E-001	-2.7908006E-001	-9.124204516327554E-003	2.5463835E-006
2	0	0	0	3.890999901705072E+000	-2.8403774E-001	-2.8410041E-001	-9.375321620213456E-003	2.6635328E-006
2	0	0	0	3.940999900441966E+000	-2.8903732E-001	-2.8908944E-001	-9.551593846209822E-003	2.7612650E-006
2	0	0	0	3.990999899178860E+000	-2.9403579E-001	-2.9409233E-001	-9.655520598811251E-003	2.8396146E-006
2	0	0	1	4.041199897910701E+000	-2.9905844E-001	-2.9913121E-001	-9.954899607447158E-003	2.9778212E-006
2	0	0	1	4.106199896268663E+000	-3.0555689E-001	-3.0559102E-001	-1.029780821852985E-002	3.1469176E-006
2	0	0	0	4.171299894624099E+000	-3.1206593E-001	-3.1212956E-001	-1.053097153764077E-002	3.2870275E-006
2	0	0	0	4.221399893358466E+000	-3.1707707E-001	-3.1713802E-001	-1.068889804908921E-002	3.3898559E-006
2	0	0	0	4.271399892095360E+000	-3.2207844E-001	-3.2214534E-001	-1.103222944567915E-002	3.5539813E-006
2	0	0	0	4.321399890832254E+000	-3.2707557E-001	-3.2712302E-001	-1.124297368050951E-002	3.6778354E-006
2	0	0	1	4.371599889564095E+000	-3.3209756E-001	-3.3212936E-001	-1.150040919720147E-002	3.8196235E-006
2	0	0	1	4.421599888300989E+000	-3.3709708E-001	-3.3714619E-001	-1.165508015318772E-002	3.9294659E-006
2	0	0	1	4.471599887037883E+000	-3.4209618E-001	-3.4214339E-001	-1.191414570257121E-002	4.0763462E-006
2	0	0	0	4.521799885769724E+000	-3.4711841E-001	-3.4717095E-001	-1.221940766009211E-002	4.2422234E-006
2	0	0	0	4.571799884506618E+000	-3.5211605E-001	-3.5216120E-001	-1.236195119773441E-002	4.3533996E-006
2	0	0	0	4.621799883243511E+000	-3.5711709E-001	-3.5717577E-001	-1.257741314491545E-002	4.4923472E-006
2	0	0	1	4.671899881977879E+000	-3.6212870E-001	-3.6218038E-001	-1.289849352524441E-002	4.6715813E-006
2	0	0	1	4.721999880712247E+000	-3.6713523E-001	-3.6719117E-001	-1.319440664959853E-002	4.8448696E-006
2	0	0	1	4.771999879449140E+000	-3.7213781E-001	-3.7220651E-001	-1.353001373326945E-002	5.0359590E-006
2	0	0	0	4.822099878183508E+000	-3.7714723E-001	-3.7720138E-001	-1.384413157810323E-002	5.2220257E-006
2	0	0	0	4.872199876917875E+000	-3.8215628E-001	-3.8222083E-001	-1.424610826349512E-002	5.4451593E-006
2	0	0	0	4.922199875654769E+000	-3.8715860E-001	-3.8721451E-001	-1.440975725317987E-002	5.5796672E-006
2	0	0	1	4.972299874389137E+000	-3.9216632E-001	-3.9223415E-001	-1.460100450427718E-002	5.7270126E-006
2	0	0	1	5.022399873123504E+000	-3.9717689E-001	-3.9724374E-001	-1.493400078248081E-002	5.9324384E-006
2	0	0	1	5.072399871860398E+000	-4.0217865E-001	-4.0224689E-001	-1.524300299619691E-002	6.1314504E-006
2	0	0	1	5.122399870597292E+000	-4.0717545E-001	-4.0722519E-001	-1.563139624434529E-002	6.3654984E-006
2	0	0	0	5.172599869329133E+000	-4.1219786E-001	-4.1224703E-001	-1.598335195405737E-002	6.5890895E-006
2	0	0	0	5.222599868066027E+000	-4.1719732E-001	-4.1724178E-001	-1.643823698774283E-002	6.8587192E-006
2	0	0	0	5.272599866802921E+000	-4.2219657E-001	-4.2224422E-001	-1.658176299130656E-002	7.0015535E-006
2	0	0	1	5.322799865534762E+000	-4.2721882E-001	-4.2727220E-001	-1.683089711230545E-002	7.1913746E-006
2	0	0	1	5.372799864271656E+000	-4.3221617E-001	-4.3226740E-001	-1.715717437919848E-002	7.4164873E-006
2	0	0	1	5.422799863008549E+000	-4.3721703E-001	-4.3727681E-001	-1.763737345642624E-002	7.7124141E-006
2	0	0	0	5.472899861742917E+000	-4.4222841E-001	-4.4228709E-001	-1.798491610135283E-002	7.9544961E-006
2	0	0	0	5.522999860477285E+000	-4.4723567E-001	-4.4728857E-001	-1.853805266093925E-002	8.2918596E-006
2	0	0	0	5.572999859214178E+000	-4.5223802E-001	-4.5229268E-001	-1.880791754803018E-002	8.5066831E-006
2	0	0	1	5.623099857948546E+000	-4.5724750E-001	-4.5730743E-001	-1.915585435319090E-002	8.7601147E-006
2	0	0	1	5.673199856682913E+000	-4.6225646E-001	-4.6231630E-001	-1.957730766123402E-002	9.0509084E-006
2	0	0	1	5.723199855419807E+000	-4.6725902E-001	-4.6731392E-001	-1.994635244481785E-002	9.3212084E-006
2	0	0	0	5.773299854154175E+000	-4.7226596E-001	-4.7232375E-001	-2.028841934108178E-002	9.5827027E-006
2	0	0	0	5.823399852888542E+000	-4.7727725E-001	-4.7732547E-001	-2.059559318407833E-002	9.8308010E-006
2	0	0	0	5.873399851625436E+000	-4.8227859E-001	-4.8234236E-001	-2.107496659914665E-002	1.0165350E-005
2	0	0	0	5.923399850362330E+000	-4.8727596E-001	-4.8736376E-001	-2.133521322982079E-002	1.0398010E-005
2	0	0	1	5.973599849094171E+000	-4.9229804E-001	-4.9237406E-001	-2.191380307113344E-002	1.0789789E-005
2	0	0	1	6.023599847831065E+000	-4.9729764E-001	-4.9736324E-001	-2.239927930574848E-002	1.1140578E-005
2	0	0	1	6.073599846567959E+000	-5.0229633E-001	-5.0238919E-001	-2.296822982418001E-002	1.1538990E-005
2	0	0	0	6.123799845299800E+000	-5.0731874E-001	-5.0740480E-001	-2.347725468550135E-002	1.1912472E-005
2	0	0	0	6.173799844036694E+000	-5.1231611E-001	-5.1239491E-001	-2.401669869541107E-002	1.2306034E-005
2	0	0	0	6.223799842773587E+000	-5.1731735E-001	-5.1739329E-001	-2.432547156548628E-002	1.2585836E-005
2	0	0	1	6.273899841507955E+000	-5.2232862E-001	-5.2240580E-001	-2.476662881754232E-002	1.2938231E-005
2	0	0	1	6.323999840242323E+000	-5.2733618E-001	-5.2741092E-001	-2.531623902588354E-002	1.3352061E-005
2	0	0	1	6.373999838979216E+000	-5.3233814E-001	-5.3242314E-001	-2.573918411028955E-002	1.3704137E-005
2	0	0	0	6.424099837713584E+000	-5.3734738E-001	-5.3745294E-001	-2.641007544638863E-002	1.4194173E-005
2	0	0	0	6.474199836447951E+000	-5.4235667E-001	-5.4242671E-001	-2.694582567770918E-002	1.4616136E-005
2	0	0	0	6.524199835184845E+000	-5.4735869E-001	-5.4743493E-001	-2.746792743333526E-002	1.5036902E-005
2	0	0	1	6.574299833919213E+000	-5.5236614E-001	-5.5244899E-001	-2.805228079042499E-002	1.5497455E-005
2	0	0	1	6.624399832653580E+000	-5.5737764E-001	-5.5747783E-001	-2.870627603355613E-002	1.6003112E-005
2	0	0	1	6.674399831390474E+000	-5.6237882E-001	-5.6244248E-001	-2.925227677123232E-002	1.6452723E-005
2	0	0	1	6.724399830127368E+000	-5.6737578E-001	-5.6745589E-001	-2.988156962764643E-002	1.6956472E-005
2	0	0	0	6.774599828859209E+000	-5.7239830E-001	-5.7246119E-001	-3.051796904460896E-002	1.7470353E-005
2	0	0	0	6.824599827596103E+000	-5.7739717E-001	-5.7748377E-001	-3.098861786304813E-002	1.7895423E-005
2	0	0	0	6.874599826332997E+000	-5.8239657E-001	-5.8249086E-001	-3.147904985864808E-002	1.8336259E-005
2	0	0	1	6.924799825064838E+000	-5.8741909E-001	-5.8747870E-001	-3.210792247391064E-002	1.8862720E-005
2	0	0	1	6.974799823801732E+000	-5.9241641E-001	-5.9249562E-001	-3.267388533178162E-002	1.9359133E-005
2	0	0	1	7.024799822538625E+000	-5.9741747E-001	-5.9749800E-001	-3.344667444139482E-002	1.9984322E-005
2	0	0	0	7.074899821272993E+000	-6.0242891E-001	-6.0250700E-001	-3.423100657244454E-002	2.0624420E-005
2	0	0	0	7.124999820007361E+000	-6.0743570E-001	-6.0752177E-001	-3.495748700344595E-002	2.1237434E-005
2	0	0	0	7.174999818744254E+000	-6.1243820E-001	-6.1253715E-001	-3.556919533183495E-002	2.1787453E-005
2	0	0	1	7.225099817478622E+000	-6.1744750E-001	-6.1752665E-001	-3.614912646886864E-002	2.2323049E-005
2	0	0	1	7.275199816212989E+000	-6.2245703E-001	-6.2253916E-001	-3.689088789300854E-002	2.2966022E-005
2	0	0	1	7.325199814949883E+000	-6.2745905E-001	-6.2754858E-001	-3.779686586090764E-002	2.3719369E-005
2	0	0	0	7.375299813684251E+000	-6.3246638E-001	-6.3254052E-001	-3.845927415226430E-002	2.4327050E-005
2	0	0	0	7.425399812418618E+000	-6.3747758E-001	-6.3756472E-001	-3.914657252095365E-002	2.4958474E-005
2	0	0	0	7.475399811155512E+000	-6.4247859E-001	-6.4251786E-001	-3.999471233263568E-002	2.5697318E-005
2	0	0	0	7.525399809892406E+000	-6.4747614E-001	-6.4754224E-001	-4.095127585914926E-002	2.6517680E-005
2	0	0	1	7.575599808624247E+000	-6.5249830E-001	-6.5257257E-001	-4.166988692449256E-002	2.7192626E-005
2	0	0	1	7.625599807361141E+000	-6.5749758E-001	-6.5755028E-001	-4.242497830592074E-002	2.7896556E-005
2	0	0	1	7.675599806098035E+000	-6.6249722E-001	-6.6254359E-001	-4.335836173906404E-002	2.8726805E-005
2	0	0	0	7.725799804829876E+000	-6.6751951E-001	-6.6755915E-001	-4.427366660532964E-002	2.9555291E-005
2	0	0	0	7.775799803566770E+000	-6.7251623E-001	-6.7257196E-001	-4.523355998552170E-002	3.0422823E-005
2	0	0	0	7.825799802303663E+000	-6.7751783E-001	-6.7756796E-001	-4.608837805187738E-002	3.1228010E-005
2	0	0	1	7.875899801038031E+000	-6.8252856E-001	-6.8256062E-001	-4.697472013157356E-002	3.2063093E-005
2	0	0	1	7.925999799772399E+000	-6.8753618E-001	-6.8758607E-001	-4.799847810615354E-002	3.3003085E-005
2	0	0	1	7.975999798509292E+000	-6.9253886E-001	-6.9257832E-001	-4.895602465283672E-002	3.3905882E-005
2	0	0	0	8.026099797243660E+000	-6.9754785E-001	-6.9759953E-001	-5.004022851168477E-002	3.4908040E-005
2	0	0	0	8.076199795978027E+000	-7.0255685E-001	-7.0260429E-001	-5.121241636967777E-002	3.5982062E-005
2	0	0	0	8.126199794714921E+000	-7.0755976E-001	-7.0762968E-001	-5.219633816912217E-002	3.6935679E-005
2	0	0	1	8.176299793449289E+000	-7.1256614E-001	-7.1262586E-001	-5.339256522289082E-002	3.8048922E-005
2	0	0	1	8.226399792183656E+000	-7.1757770E-001	-7.1762675E-001	-5.435314119385509E-002	3.9005266E-005
2	0	0	1	8.276399790920550E+000	-7.2257900E-001	-7.2262472E-001	-5.539465606602417E-002	4.0029547E-005
2	0	0	1	8.326399789657444E+000	-7.2757679E-001	-7.2760606E-001	-5.637964770954351E-002	4.1022173E-005
2	0	0	0	8.376599788389285E+000	-7.3259860E-001	-7.3263222E-001	-5.752162503516067E-002	4.2142197E-005
2	0	0	0	8.426599787126179E+000	-7.3759794E-001	-7.3765147E-001	-5.865473369048685E-002	4.3266751E-005
2	0	0	0	8.476599785863073E+000	-7.4259716E-001	-7.4261898E-001	-5.984506166577730E-002	4.4442080E-005
2	0	0	1	8.526799784594914E+000	-7.4761933E-001	-7.4764681E-001	-6.107389830020749E-002	4.5661705E-005
2	0	0	1	8.576799783331808E+000	-7.5261652E-001	-7.5264883E-001	-6.217541895968721E-002	4.6796256E-005
2	0	0	1	8.626799782068701E+000	-7.5761813E-001	-7.5766003E-001	-6.333559162300717E-002	4.7986847E-005
2	0	0	0	8.676899780803069E+000	-7.6262891E-001	-7.6266229E-001	-6.476537804991878E-002	4.9394112E-005
2	0	0	0	8.726999779537437E+000	-7.6763666E-001	-7.6769692E-001	-6.599316791486753E-002	5.0662751E-005
2	0	0	0	8.776999778274330E+000	-7.7263892E-001	-7.7269250E-001	-6.741878598234319E-002	5.2093990E-005
2	0	0	1	8.827099777008698E+000	-7.7764755E-001	-7.7768826E-001	-6.878653385077516E-002	5.3494481E-005
2	0	0	1	8.877199775743065E+000	-7.8265750E-001	-7.8273213E-001	-7.042520594222712E-002	5.5124070E-005
2	0	0	1	8.927199774479959E+000	-7.8765947E-001	-7.8773057E-001	-7.195700543947481E-002	5.6682733E-005
2	0	0	0	8.977299773214327E+000	-7.9266649E-001	-7.9272497E-001	-7.338464338915235E-002	5.8173839E-005
2	0	0	0	9.027399771948694E+000	-7.9767829E-001	-7.9774982E-001	-7.480904393393761E-002	5.9678900E-005
2	0	0	0	9.077399770685588E+000	-8.0267942E-001	-8.0274564E-001	-7.610601991780291E-002	6.1093779E-005
2	0	0	0	9.127399769422482E+000	-8.0767655E-001	-8.0774063E-001	-7.748259588185162E-002	6.2585837E-005
2	0	0	1	9.177599768154323E+000	-8.1269920E-001	-8.1275702E-001	-7.869683023697216E-002	6.3961401E-005
2	0	0	1	9.227599766891217E+000	-8.1769753E-001	-8.1777877E-001	-8.017185676702865E-002	6.5562839E-005
2	0	0	1	9.277599765628111E+000	-8.2269758E-001	-8.2276833E-001	-8.179744419698648E-002	6.7300345E-005
2	0	0	0	9.327799764359952E+000	-8.2771975E-001	-8.2777578E-001	-8.349495869016610E-002	6.9115107E-005
2	0	0	0	9.377799763096846E+000	-8.3271688E-001	-8.3281386E-001	-8.502608234923525E-002	7.0810900E-005
2	0	0	0	9.427799761833739E+000	-8.3771831E-001	-8.3779788E-001	-8.635599031005747E-002	7.2348863E-005
2	0	0	1	9.477899760568107E+000	-8.4272939E-001	-8.4280217E-001	-8.763885047919251E-002	7.3862211E-005
2	0	0	1	9.527999759302475E+000	-8.4773642E-001	-8.4783393E-001	-8.968338085375405E-002	7.6036617E-005
2	0	0	1	9.577999758039368E+000	-8.5273898E-001	-8.5280710E-001	-9.141359093927637E-002	7.7958161E-005
2	0	0	0	9.628099756773736E+000	-8.5774785E-001	-8.5783350E-001	-9.316172931802869E-002	7.9917256E-005
2	0	0	0	9.678199755508103E+000	-8.6275768E-001	-8.6285275E-001	-9.465060618967036E-002	8.1669539E-005
2	0	0	0	9.728199754244997E+000	-8.6775994E-001	-8.6786437E-001	-9.634336690930301E-002	8.3612977E-005
2	0	0	1	9.778299752979365E+000	-8.7276691E-001	-8.7286007E-001	-9.797751197308283E-002	8.5520660E-005
2	0	0	1	9.828399751713732E+000	-8.7777841E-001	-8.7784165E-001	-9.975660990097124E-002	8.7570508E-005
2	0	0	1	9.878399750450626E+000	-8.8277888E-001	-8.8280952E-001	-1.014671369213362E-001	8.9576155E-005
2	0	0	1	9.943699748801009E+000	-8.8931000E-001	-8.8940716E-001	-1.035121949086908E-001	9.2064489E-005
2	0	0	0	1.000899974715139E+001	-8.9583713E-001	-8.9589500E-001	-1.059892031616264E-001	9.4955198E-005
2	0	0	1	1.005919974588323E+001	-9.0085918E-001	-9.0091586E-001	-1.077875535868174E-001	9.7107513E-005
2	0	0	1	1.010919974462013E+001	-9.0585816E-001	-9.0592712E-001	-1.095674708480906E-001	9.9260142E-005
2	0	0	1	1.015919974335702E+001	-9.1085750E-001	-9.1093123E-001	-1.113038763636793E-001	1.0139018E-004
2	0	0	0	1.020939974208886E+001	-9.1587991E-001	-9.1594070E-001	-1.131891187557970E-001	1.0367452E-004
2	0	0	0	1.025939974082576E+001	-9.2087668E-001	-9.2093319E-001	-1.148281953230967E-001	1.0574910E-004
2	0	0	0	1.030939973956265E+001	-9.2587847E-001	-9.2594886E-001	-1.166182731359038E-001	1.0798256E-004
2	0	0	1	1.035949973829702E+001	-9.3088919E-001	-9.3095857E-001	-1.183438043070146E-001	1.1017318E-004
2	0	0	1	1.040959973703139E+001	-9.3589717E-001	-9.3596339E-001	-1.202919157249673E-001	1.1258883E-004
2	0	0	1	1.045959973576828E+001	-9.4089943E-001	-9.4097060E-001	-1.221005912585051E-001	1.1489307E-004
2	0	0	0	1.050969973450265E+001	-9.4590795E-001	-9.4597811E-001	-1.238936729261846E-001	1.1720070E-004
2	0	0	0	1.055979973323701E+001	-9.5091766E-001	-9.5098728E-001	-1.260287177290714E-001	1.1985171E-004
2	0	0	0	1.060979973197391E+001	-9.5591986E-001	-9.5595264E-001	-1.278798436624004E-001	1.2224707E-004
2	0	0	1	1.065989973070828E+001	-9.6092665E-001	-9.6097124E-001	-1.299531793556992E-001	1.2488126E-004
2	0	0	1	1.070999972944264E+001	-9.6593869E-001	-9.6599650E-001	-1.319695389755624E-001	1.2748211E-004
2	0	0	1	1.075999972817954E+001	-9.7093946E-001	-9.7099197E-001	-1.340295933076683E-001	1.3014166E-004
2	0	0	1	1.080999972691643E+001	-9.7593689E-001	-9.7599053E-001	-1.364520070118687E-001	1.3317587E-004
2	0	0	0	1.086019972564827E+001	-9.8095959E-001	-9.8101103E-001	-1.384840871633612E-001	1.3585441E-004
2	0	0	0	1.091019972438517E+001	-9.8595780E-001	-9.8603350E-001	-1.404900400657497E-001	1.3852789E-004
2	0	0	0	1.096019972312206E+001	-9.9095780E-001	-9.9101132E-001	-1.425859321962455E-001	1.4130428E-004
2	0	0	1	1.101039972185390E+001	-9.9598014E-001	-9.9602377E-001	-1.446696395626430E-001	1.4409440E-004
2	0	0	1	1.104289972103288E+001	-9.9922323E-001	-9.9929911E-001	-1.459301995822075E-001	1.4582791E-004
2	0	0	0	1.105059972083836E+001	-9.9999833E-001	-1.0001024E+000	-1.458511054515839E-001	1.4586604E-004