EC-Lab ASCII FILE
Nb header lines : 55                          

I-V Characterization

Run on channel : 1 (SN 6514)
User : 
CE vs. WE compliance from -10 V to 10 V
Electrode connection : standard
Ewe ctrl range : min = -1.10 V, max = 0.20 V
Safety Limits :
	Do not start on E overload
Acquisition started on : 06/15/2016 18:08:28
Saved on :
	File : B125-G54-UN-G-D1GB-C7 FW 10mVs_C01.mpr
	Directory : E:\EC-Lab measurements\B125-G54-UN-G-D1GB\
	Host : 10.0.2.15
Device : VSP (SN 0295)
Address : USB
EC-Lab for windows v11.01 (software)
Internet server v11.00 (firmware)
Command interpretor v11.00 (firmware)
Electrode material : 
Initial state : 
Electrolyte : 
Comments : 
Electrode surface area : 0.001 cm²
Characteristic mass : 0.001 g
Equivalent Weight : 0.000 g/eq.
Density : 0.000 g/cm3
tR (h:m:s)          0:00:0.0000         
dER/dt (mV/h)       0.0                 
dER (mV)            0                   
dtR (s)             0.0000              
dE/dt               10.000              
dE/dt unit          mV/s                
Ei (V)              0.100               
vs.                 Ref                 
EL (V)              -1.000              
vs.                 Ref                 
record              <I>                 
dI                  0.000               
unit dI             µA                  
tI (s)              0.1000              
step percent        100                 
N                   100                 
E range min (V)     -1.100              
E range max (V)     0.200               
I Range             Auto                
I Range min         Unset               
I Range max         Unset               
I Range init        Unset               
Bandwidth           5                   

mode	ox/red	error	control changes	time/s	control/V	Ewe/V	<I>/mA	P/W
2	0	0	0	1.449999963369919E-001	9.9116333E-002	9.8995797E-002	1.144174561500550E+000	1.1326847E-004
2	0	0	1	3.977999899507267E-001	9.6588187E-002	9.6507274E-002	1.146357251145396E+000	1.1063182E-004
2	0	0	0	8.983999773045070E-001	9.1582194E-002	9.1508336E-002	1.140200144530080E+000	1.0433782E-004
2	0	0	1	1.398999964658287E+000	8.6576194E-002	8.6490452E-002	1.128798664257211E+000	9.7630305E-005
2	0	0	0	1.899699952009541E+000	8.1569232E-002	8.1507206E-002	1.124581837274503E+000	9.1661524E-005
2	0	0	0	2.400399939360796E+000	7.6562248E-002	7.6493077E-002	1.115370622861269E+000	8.5318134E-005
2	0	0	1	2.900999926714576E+000	7.1556278E-002	7.1466483E-002	1.108083207920689E+000	7.9190810E-005
2	0	0	0	3.401599914068356E+000	6.6550285E-002	6.6470817E-002	1.102745784194588E+000	7.3300413E-005
2	0	0	1	3.902199901422136E+000	6.1544303E-002	6.1453532E-002	1.104925424717248E+000	6.7901572E-005
2	0	0	0	4.402799888775917E+000	5.6538265E-002	5.6449883E-002	1.099694107941637E+000	6.2077605E-005
2	0	0	1	4.903399876129697E+000	5.1532287E-002	5.1443294E-002	1.095886380357879E+000	5.6376004E-005
2	0	0	0	5.403999863483477E+000	4.6526264E-002	4.6437848E-002	1.093560757638585E+000	5.0782608E-005
2	0	0	1	5.904699850834731E+000	4.1519281E-002	4.1412376E-002	1.090514614896637E+000	4.5160799E-005
2	0	0	1	6.405399838185986E+000	3.6512356E-002	3.6412928E-002	1.087395741318332E+000	3.9595263E-005
2	0	0	0	6.905999825539766E+000	3.1506352E-002	3.1422425E-002	1.086648001568799E+000	3.4145116E-005
2	0	0	1	7.406599812893546E+000	2.6500374E-002	2.6408922E-002	1.086303970762705E+000	2.8688117E-005
2	0	0	0	7.907199800247326E+000	2.1494357E-002	2.1408958E-002	1.082692496871109E+000	2.3179318E-005
2	0	0	1	8.407799787601107E+000	1.6488364E-002	1.6378317E-002	1.082555761826020E+000	1.7730441E-005
2	0	0	0	8.908399774954887E+000	1.1482389E-002	1.1387959E-002	1.081479257399337E+000	1.2315842E-005
2	0	0	1	9.408999762308667E+000	6.4763562E-003	6.3677137E-003	1.078210426828196E+000	6.8657355E-006
2	0	0	0	9.909699749659922E+000	1.4693901E-003	1.3712656E-003	1.078425809716897E+000	1.4788083E-006
2	0	0	0	1.041039973701118E+001	-3.5375652E-003	-3.6438673E-003	1.075771950445930E+000	3.9199704E-006
2	0	0	1	1.091099972436496E+001	-8.5436013E-003	-8.6529944E-003	1.072572634177295E+000	9.2809651E-006
2	0	0	0	1.141159971171874E+001	-1.3549617E-002	-1.3646184E-002	1.071738305490832E+000	1.4625139E-005
2	0	0	1	1.191219969907252E+001	-1.8555634E-002	-1.8637091E-002	1.070793854334760E+000	1.9956482E-005
2	0	0	0	1.241279968642630E+001	-2.3561653E-002	-2.3647560E-002	1.069553602255392E+000	2.5292333E-005
2	0	0	1	1.291339967378008E+001	-2.8567666E-002	-2.8642897E-002	1.069204090528095E+000	3.0625102E-005
2	0	0	0	1.341399966113386E+001	-3.3573680E-002	-3.3675492E-002	1.067122569121452E+000	3.5935878E-005
2	0	0	1	1.391469964848511E+001	-3.8580686E-002	-3.8655944E-002	1.063173585115024E+000	4.1097977E-005
2	0	0	1	1.441539963583637E+001	-4.3587618E-002	-4.3676984E-002	1.062160623634462E+000	4.6391971E-005
2	0	0	0	1.491599962319015E+001	-4.8593652E-002	-4.8681915E-002	1.063151008114654E+000	5.1756226E-005
2	0	0	1	1.541659961054393E+001	-5.3599667E-002	-5.3689752E-002	1.060065505283406E+000	5.6914654E-005
2	0	0	0	1.591719959789771E+001	-5.8605678E-002	-5.8689907E-002	1.055753716352881E+000	6.1962084E-005
2	0	0	1	1.641779958525149E+001	-6.3611716E-002	-6.3694984E-002	1.056319794656847E+000	6.7282272E-005
2	0	0	0	1.691839957260527E+001	-6.8617716E-002	-6.8696409E-002	1.055937732185939E+000	7.2539129E-005
2	0	0	1	1.741899955995905E+001	-7.3623762E-002	-7.3710106E-002	1.053564847210481E+000	7.7658377E-005
2	0	0	0	1.791969954731030E+001	-7.8630768E-002	-7.8719214E-002	1.052210325774711E+000	8.2829167E-005
2	0	0	0	1.842039953466156E+001	-8.3637729E-002	-8.3722323E-002	1.049505962853839E+000	8.7867076E-005
2	0	0	1	1.892099952201534E+001	-8.8643752E-002	-8.8731326E-002	1.046948354559134E+000	9.2897113E-005
2	0	0	0	1.942159950936912E+001	-9.3649767E-002	-9.3717165E-002	1.047457248683422E+000	9.8164724E-005
2	0	0	1	1.992219949672290E+001	-9.8655783E-002	-9.8723091E-002	1.045469754600243E+000	1.0321201E-004
2	0	0	0	2.042279948407668E+001	-1.0366178E-001	-1.0374144E-001	1.044453451230172E+000	1.0835310E-004
2	0	0	1	2.092339947143046E+001	-1.0866781E-001	-1.0875248E-001	1.040887087083636E+000	1.1319905E-004
2	0	0	0	2.142399945878424E+001	-1.1367382E-001	-1.1374551E-001	1.041174511336278E+000	1.1842893E-004
2	0	0	1	2.192469944613549E+001	-1.1868081E-001	-1.1875788E-001	1.038691254366189E+000	1.2335277E-004
2	0	0	1	2.242539943348675E+001	-1.2368778E-001	-1.2375208E-001	1.035956592718671E+000	1.2820178E-004
2	0	0	0	2.292599942084053E+001	-1.2869380E-001	-1.2877506E-001	1.035288008607456E+000	1.3331928E-004
2	0	0	1	2.342659940819431E+001	-1.3369982E-001	-1.3377909E-001	1.034598089076759E+000	1.3840759E-004
2	0	0	0	2.392719939554809E+001	-1.3870582E-001	-1.3878837E-001	1.031957420273780E+000	1.4322369E-004
2	0	0	1	2.442779938290187E+001	-1.4371185E-001	-1.4380807E-001	1.029139012554666E+000	1.4799849E-004
2	0	0	0	2.492839937025565E+001	-1.4871788E-001	-1.4881916E-001	1.029589524126021E+000	1.5322265E-004
2	0	0	1	2.542899935760943E+001	-1.5372390E-001	-1.5381895E-001	1.025544228892024E+000	1.5774813E-004
2	0	0	0	2.592969934496068E+001	-1.5873092E-001	-1.5884046E-001	1.023482892966358E+000	1.6257049E-004
2	0	0	0	2.643039933231194E+001	-1.6373786E-001	-1.6385345E-001	1.021884352582607E+000	1.6743928E-004
2	0	0	1	2.693099931966572E+001	-1.6874388E-001	-1.6884187E-001	1.020100799466469E+000	1.7223573E-004
2	0	0	0	2.743159930701950E+001	-1.7374989E-001	-1.7387234E-001	1.014509285780449E+000	1.7639510E-004
2	0	0	1	2.793219929437328E+001	-1.7875592E-001	-1.7886616E-001	1.015983285562339E+000	1.8172503E-004
2	0	0	0	2.843279928172706E+001	-1.8376197E-001	-1.8389578E-001	1.015399727238314E+000	1.8672773E-004
2	0	0	1	2.893339926908084E+001	-1.8876797E-001	-1.8889228E-001	1.014150922258224E+000	1.9156527E-004
2	0	0	0	2.943399925643462E+001	-1.9377394E-001	-1.9390118E-001	1.012181546673375E+000	1.9626319E-004
2	0	0	1	2.993459924378840E+001	-1.9878002E-001	-1.9890264E-001	1.008074850969239E+000	2.0050874E-004
2	0	0	1	3.043539923113713E+001	-2.0378798E-001	-2.0390896E-001	1.004556185185282E+000	2.0483801E-004
2	0	0	0	3.093599921849091E+001	-2.0879401E-001	-2.0890899E-001	1.004483813146025E+000	2.0984570E-004
2	0	0	1	3.143659920584469E+001	-2.1380003E-001	-2.1392529E-001	1.002539756981974E+000	2.1446860E-004
2	0	0	0	3.193719919319847E+001	-2.1880603E-001	-2.1893825E-001	9.980810109130651E-001	2.1851811E-004
2	0	0	1	3.243779918055225E+001	-2.2381204E-001	-2.2394544E-001	9.972545581694900E-001	2.2333061E-004
2	0	0	0	3.293839916790603E+001	-2.2881806E-001	-2.2893694E-001	9.968314935639544E-001	2.2821155E-004
2	0	0	1	3.343899915525981E+001	-2.3382410E-001	-2.3394185E-001	9.952235799672980E-001	2.3282444E-004
2	0	0	0	3.393959914261359E+001	-2.3883006E-001	-2.3895137E-001	9.955661315952180E-001	2.3789189E-004
2	0	0	0	3.444039912996232E+001	-2.4383800E-001	-2.4395339E-001	9.924167562714885E-001	2.4210343E-004
2	0	0	1	3.494099911731610E+001	-2.4884400E-001	-2.4896026E-001	9.882649569988864E-001	2.4603869E-004
2	0	0	0	3.544159910466988E+001	-2.5385010E-001	-2.5394881E-001	9.867870557246086E-001	2.5059341E-004
2	0	0	1	3.594219909202366E+001	-2.5885603E-001	-2.5896731E-001	9.820990790674635E-001	2.5433156E-004
2	0	0	0	3.644279907937744E+001	-2.6386207E-001	-2.6396173E-001	9.816791251569548E-001	2.5912572E-004
2	0	0	1	3.694339906673122E+001	-2.6886812E-001	-2.6897326E-001	9.790435281813146E-001	2.6333652E-004
2	0	0	0	3.744399905408500E+001	-2.7387419E-001	-2.7396873E-001	9.748119968921856E-001	2.6706801E-004
2	0	0	1	3.794459904143878E+001	-2.7888018E-001	-2.7899882E-001	9.711258111032528E-001	2.7094295E-004
2	0	0	1	3.844539902878751E+001	-2.8388813E-001	-2.8400236E-001	9.700913249279139E-001	2.7550824E-004
2	0	0	0	3.894599901614129E+001	-2.8889418E-001	-2.8899193E-001	9.678732060135280E-001	2.7970754E-004
2	0	0	1	3.944659900349507E+001	-2.9390016E-001	-2.9400048E-001	9.629792300823077E-001	2.8311636E-004
2	0	0	0	3.994719899084885E+001	-2.9890615E-001	-2.9901594E-001	9.598875881135154E-001	2.8702168E-004
2	0	0	1	4.044779897820263E+001	-3.0391216E-001	-3.0402291E-001	9.579618173515314E-001	2.9124235E-004
2	0	0	0	4.094839896555641E+001	-3.0891821E-001	-3.0901945E-001	9.532087542077878E-001	2.9456004E-004
2	0	0	1	4.144899895291019E+001	-3.1392422E-001	-3.1403545E-001	9.521275184611226E-001	2.9900178E-004
2	0	0	0	4.194959894026397E+001	-3.1893027E-001	-3.1905192E-001	9.475669442744881E-001	3.0232305E-004
2	0	0	0	4.245039892761270E+001	-3.2393825E-001	-3.2404554E-001	9.448277337037220E-001	3.0616720E-004
2	0	0	1	4.295099891496648E+001	-3.2894430E-001	-3.2902837E-001	9.404275494979091E-001	3.0942736E-004
2	0	0	0	4.345159890232026E+001	-3.3395028E-001	-3.3403289E-001	9.356938499297183E-001	3.1255253E-004
2	0	0	1	4.395219888967404E+001	-3.3895627E-001	-3.3904362E-001	9.331473235817560E-001	3.1637764E-004
2	0	0	0	4.445279887702782E+001	-3.4396228E-001	-3.4404805E-001	9.291325340647809E-001	3.1966623E-004
2	0	0	1	4.495339886438160E+001	-3.4896830E-001	-3.4907311E-001	9.249460572315096E-001	3.2287379E-004
2	0	0	0	4.545399885173538E+001	-3.5397428E-001	-3.5408539E-001	9.203241262741511E-001	3.2587332E-004
2	0	0	1	4.595459883908916E+001	-3.5898030E-001	-3.5908496E-001	9.157815923626345E-001	3.2884339E-004
2	0	0	1	4.645539882643789E+001	-3.6398825E-001	-3.6409879E-001	9.129448491522938E-001	3.3240212E-004
2	0	0	0	4.695599881379167E+001	-3.6899433E-001	-3.6910608E-001	9.053681553354376E-001	3.3417690E-004
2	0	0	1	4.745659880114545E+001	-3.7400034E-001	-3.7410840E-001	9.022845068095253E-001	3.3755222E-004
2	0	0	0	4.795719878849923E+001	-3.7900642E-001	-3.7911159E-001	8.975182152859322E-001	3.4025955E-004
2	0	0	1	4.845779877585301E+001	-3.8401246E-001	-3.8412380E-001	8.922271050564881E-001	3.4272566E-004
2	0	0	0	4.895839876320679E+001	-3.8901839E-001	-3.8911813E-001	8.879298271157658E-001	3.4550959E-004
2	0	0	1	4.945899875056057E+001	-3.9402434E-001	-3.9412597E-001	8.825094414334291E-001	3.4781988E-004
2	0	0	0	4.995959873791435E+001	-3.9903036E-001	-3.9915860E-001	8.777623068203786E-001	3.5036638E-004
2	0	0	0	5.046039872526308E+001	-4.0403828E-001	-4.0413353E-001	8.729805749335089E-001	3.5280071E-004
2	0	0	1	5.096099871261686E+001	-4.0904430E-001	-4.0913573E-001	8.664784895552407E-001	3.5450730E-004
2	0	0	0	5.146159869997064E+001	-4.1405031E-001	-4.1415015E-001	8.607978768994045E-001	3.5649957E-004
2	0	0	1	5.196219868732442E+001	-4.1905642E-001	-4.1915196E-001	8.552039549468411E-001	3.5846041E-004
2	0	0	0	5.246279867467820E+001	-4.2406240E-001	-4.2415777E-001	8.498376612381883E-001	3.6046526E-004
2	0	0	1	5.296339866203198E+001	-4.2906848E-001	-4.2915824E-001	8.433059145194477E-001	3.6191169E-004
2	0	0	0	5.346399864938576E+001	-4.3407449E-001	-4.3417373E-001	8.361133340157796E-001	3.6301845E-004
2	0	0	1	5.396459863673954E+001	-4.3908054E-001	-4.3917763E-001	8.307042481862528E-001	3.6482673E-004
2	0	0	1	5.446539862408827E+001	-4.4408846E-001	-4.4417679E-001	8.247428929174294E-001	3.6633166E-004
2	0	0	0	5.496599861144205E+001	-4.4909433E-001	-4.4919139E-001	8.173289207571726E-001	3.6713711E-004
2	0	0	1	5.546659859879583E+001	-4.5410043E-001	-4.5419845E-001	8.089399908702599E-001	3.6741930E-004
2	0	0	0	5.596719858614961E+001	-4.5910639E-001	-4.5920265E-001	8.019250232157535E-001	3.6824608E-004
2	0	0	1	5.646779857350339E+001	-4.6411246E-001	-4.6422100E-001	7.963357538112119E-001	3.6967578E-004
2	0	0	0	5.696839856085717E+001	-4.6911842E-001	-4.6922746E-001	7.899317429446366E-001	3.7065765E-004
2	0	0	1	5.746899854821095E+001	-4.7412443E-001	-4.7423965E-001	7.803663099463263E-001	3.7008064E-004
2	0	0	0	5.796959853556473E+001	-4.7913054E-001	-4.7922900E-001	7.740642155792106E-001	3.7095402E-004
2	0	0	0	5.847039852291346E+001	-4.8413852E-001	-4.8426348E-001	7.673454587128994E-001	3.7159739E-004
2	0	0	1	5.897099851026724E+001	-4.8914459E-001	-4.8925981E-001	7.578231209077062E-001	3.7077241E-004
2	0	0	0	5.947159849762102E+001	-4.9415058E-001	-4.9427336E-001	7.494723220233326E-001	3.7044421E-004
2	0	0	1	5.997219848497480E+001	-4.9915650E-001	-4.9927211E-001	7.404029955516449E-001	3.6966256E-004
2	0	0	0	6.047279847232858E+001	-5.0416249E-001	-5.0428116E-001	7.317697843359419E-001	3.6901771E-004
2	0	0	1	6.097339845968236E+001	-5.0916857E-001	-5.0928420E-001	7.241275738166078E-001	3.6878674E-004
2	0	0	0	6.147399844703614E+001	-5.1417452E-001	-5.1430553E-001	7.149218022023103E-001	3.6768825E-004
2	0	0	1	6.197459843438992E+001	-5.1918048E-001	-5.1930922E-001	7.061746039644090E-001	3.6672299E-004
2	0	0	0	6.247529842174117E+001	-5.2418751E-001	-5.2429974E-001	6.981381971165543E-001	3.6603367E-004
2	0	0	0	6.297599840909243E+001	-5.2919447E-001	-5.2933204E-001	6.886987905192097E-001	3.6455033E-004
2	0	0	1	6.347659839644621E+001	-5.3420055E-001	-5.3431535E-001	6.797209669045898E-001	3.6318533E-004
2	0	0	0	6.397719838379999E+001	-5.3920662E-001	-5.3931695E-001	6.704735609320336E-001	3.6159775E-004
2	0	0	1	6.447779837115377E+001	-5.4421276E-001	-5.4433107E-001	6.592458530083714E-001	3.5884799E-004
2	0	0	0	6.497839835850755E+001	-5.4921883E-001	-5.4934627E-001	6.505965145335306E-001	3.5740278E-004
2	0	0	1	6.547899834586133E+001	-5.5422467E-001	-5.5436432E-001	6.404248663152377E-001	3.5502869E-004
2	0	0	0	6.597959833321511E+001	-5.5923074E-001	-5.5936235E-001	6.301206115402263E-001	3.5246575E-004
2	0	0	1	6.648029832056636E+001	-5.6423759E-001	-5.6435764E-001	6.188157133343801E-001	3.4923336E-004
2	0	0	1	6.698099830791762E+001	-5.6924462E-001	-5.6936449E-001	6.063903153062906E-001	3.4525711E-004
2	0	0	0	6.748159829527140E+001	-5.7425064E-001	-5.7438534E-001	5.976054090969380E-001	3.4325579E-004
2	0	0	1	6.798219828262518E+001	-5.7925677E-001	-5.7938296E-001	5.871294578678317E-001	3.4017279E-004
2	0	0	0	6.848279826997896E+001	-5.8426267E-001	-5.8438277E-001	5.762372420869433E-001	3.3674311E-004
2	0	0	1	6.898339825733274E+001	-5.8926886E-001	-5.8939356E-001	5.637911697865254E-001	3.3229488E-004
2	0	0	0	6.948399824468652E+001	-5.9427482E-001	-5.9441584E-001	5.527961002865247E-001	3.2859077E-004
2	0	0	1	6.998459823204030E+001	-5.9928089E-001	-5.9941339E-001	5.412281959044254E-001	3.2441944E-004
2	0	0	0	7.048529821939155E+001	-6.0428804E-001	-6.0442072E-001	5.280882222279280E-001	3.1918747E-004
2	0	0	0	7.098599820674281E+001	-6.0929483E-001	-6.0941851E-001	5.175683294632680E-001	3.1541573E-004
2	0	0	1	7.148659819409659E+001	-6.1430085E-001	-6.1442286E-001	5.053667057031817E-001	3.1050885E-004
2	0	0	0	7.198719818145037E+001	-6.1930662E-001	-6.1944062E-001	4.935633548286553E-001	3.0573318E-004
2	0	0	1	7.250529816836206E+001	-6.2448800E-001	-6.2458289E-001	4.815824471950449E-001	3.0078815E-004
2	0	0	1	7.302339815527375E+001	-6.2966883E-001	-6.2975299E-001	4.675884432853463E-001	2.9446522E-004
2	0	0	0	7.352409814262501E+001	-6.3467592E-001	-6.3473868E-001	4.553109191611986E-001	2.8900345E-004
2	0	0	0	7.402479812997626E+001	-6.3968277E-001	-6.3974631E-001	4.425529698910777E-001	2.8312163E-004
2	0	0	1	7.452539811733004E+001	-6.4468902E-001	-6.4474177E-001	4.296311921774540E-001	2.7700118E-004
2	0	0	0	7.502599810468382E+001	-6.4969474E-001	-6.4975083E-001	4.159845460720129E-001	2.7028631E-004
2	0	0	1	7.552659809203760E+001	-6.5470099E-001	-6.5474880E-001	4.031112945767452E-001	2.6393664E-004
2	0	0	0	7.602719807939138E+001	-6.5970713E-001	-6.5975779E-001	3.902098305223642E-001	2.5744399E-004
2	0	0	1	7.652779806674516E+001	-6.6471297E-001	-6.6474450E-001	3.770231394848462E-001	2.5062406E-004
2	0	0	0	7.702839805409894E+001	-6.6971904E-001	-6.6976529E-001	3.631202019559634E-001	2.4320532E-004
2	0	0	1	7.752909804145020E+001	-6.7472583E-001	-6.7477196E-001	3.489402068242136E-001	2.3545507E-004
2	0	0	1	7.802979802880145E+001	-6.7973304E-001	-6.7978865E-001	3.357889044507014E-001	2.2826549E-004
2	0	0	0	7.853039801615523E+001	-6.8473887E-001	-6.8477803E-001	3.221733866424484E-001	2.2061726E-004
2	0	0	1	7.903099800350901E+001	-6.8974507E-001	-6.8979287E-001	3.079726423878453E-001	2.1243733E-004
2	0	0	0	7.953159799086279E+001	-6.9475096E-001	-6.9479191E-001	2.940103634218323E-001	2.0427602E-004
2	0	0	1	8.003219797821657E+001	-6.9975716E-001	-6.9979143E-001	2.798707660587363E-001	1.9585117E-004
2	0	0	0	8.053279796557035E+001	-7.0476300E-001	-7.0480484E-001	2.660803954387188E-001	1.8753475E-004
2	0	0	1	8.103339795292413E+001	-7.0976907E-001	-7.0982707E-001	2.518851423107762E-001	1.7879489E-004
2	0	0	0	8.153409794027539E+001	-7.1477634E-001	-7.1482509E-001	2.368828825742202E-001	1.6932983E-004
2	0	0	0	8.203479792762664E+001	-7.1978301E-001	-7.1981400E-001	2.229662662440881E-001	1.6049424E-004
2	0	0	1	8.253539791498042E+001	-7.2478920E-001	-7.2481793E-001	2.091561036882932E-001	1.5160009E-004
2	0	0	0	8.303599790233420E+001	-7.2979498E-001	-7.2983271E-001	1.947879935199383E-001	1.4216265E-004
2	0	0	1	8.353659788968798E+001	-7.3480111E-001	-7.3482955E-001	1.802972581442055E-001	1.3248775E-004
2	0	0	0	8.403719787704176E+001	-7.3980695E-001	-7.3983514E-001	1.658201196738121E-001	1.2267956E-004
2	0	0	1	8.453779786439554E+001	-7.4481320E-001	-7.4484432E-001	1.513222750890806E-001	1.1271154E-004
2	0	0	0	8.503839785174932E+001	-7.4981898E-001	-7.4986100E-001	1.366765568824269E-001	1.0248842E-004
2	0	0	1	8.553909783910058E+001	-7.5482625E-001	-7.5485992E-001	1.220359866717121E-001	9.2120077E-005
2	0	0	1	8.603979782645183E+001	-7.5983310E-001	-7.5989372E-001	1.074403208854874E-001	8.1643222E-005
2	0	0	0	8.654039781380561E+001	-7.6483923E-001	-7.6488900E-001	9.309162505342861E-002	7.1204762E-005
2	0	0	1	8.704099780115939E+001	-7.6984525E-001	-7.6989758E-001	7.826047500505628E-002	6.0252551E-005
2	0	0	0	8.754159778851317E+001	-7.7485108E-001	-7.7490175E-001	6.380856634163368E-002	4.9445371E-005
2	0	0	1	8.805719777548802E+001	-7.8000718E-001	-7.8004062E-001	4.896219246071531E-002	3.8192498E-005
2	0	0	0	8.857279776246287E+001	-7.8516304E-001	-7.8521585E-001	3.403684326835832E-002	2.6726269E-005
2	0	0	1	8.907349774981412E+001	-7.9017025E-001	-7.9020762E-001	1.930216632687687E-002	1.5252719E-005
2	0	0	1	8.959169773672329E+001	-7.9535198E-001	-7.9540527E-001	4.301286183270497E-003	3.4212658E-006
2	0	0	1	9.012729772319290E+001	-8.0070823E-001	-8.0076498E-001	-1.109333897208261E-002	8.8831575E-006
2	0	0	1	9.064539771010459E+001	-8.0588907E-001	-8.0595505E-001	-2.606135166239754E-002	2.1004278E-005
2	0	0	0	9.114609769745584E+001	-8.1089622E-001	-8.1095058E-001	-4.053295302052529E-002	3.2870223E-005
2	0	0	0	9.164679768480710E+001	-8.1590307E-001	-8.1597471E-001	-5.484595090469391E-002	4.4752909E-005
2	0	0	1	9.214739767216088E+001	-8.2090932E-001	-8.2098627E-001	-6.914289281613055E-002	5.6765366E-005
2	0	0	0	9.264799765951466E+001	-8.2591528E-001	-8.2598799E-001	-8.346774236049637E-002	6.8943351E-005
2	0	0	1	9.316609764642635E+001	-8.3109605E-001	-8.3117586E-001	-9.811358056786612E-002	8.1549639E-005
2	0	0	1	9.368419763333804E+001	-8.3627737E-001	-8.3634484E-001	-1.126673626244306E-001	9.4228766E-005
2	0	0	0	9.418479762069182E+001	-8.4128326E-001	-8.4133971E-001	-1.265913531114065E-001	1.0650633E-004
2	0	0	0	9.468559760804055E+001	-8.4629130E-001	-8.4636217E-001	-1.407067977044760E-001	1.1908891E-004
2	0	0	1	9.518619759539433E+001	-8.5129720E-001	-8.5137779E-001	-1.548674767886959E-001	1.3185073E-004
2	0	0	0	9.568679758274811E+001	-8.5630333E-001	-8.5638076E-001	-1.687992514973520E-001	1.4455643E-004
2	0	0	1	9.618739757010189E+001	-8.6130911E-001	-8.6138070E-001	-1.825770728449736E-001	1.5726837E-004
2	0	0	0	9.668799755745567E+001	-8.6631536E-001	-8.6639822E-001	-1.961329840545860E-001	1.6992926E-004
2	0	0	1	9.718859754480945E+001	-8.7132126E-001	-8.7140268E-001	-2.094538591120636E-001	1.8251865E-004
2	0	0	0	9.768919753216323E+001	-8.7632746E-001	-8.7638581E-001	-2.233712867484785E-001	1.9575942E-004
2	0	0	1	9.818979751951701E+001	-8.8133335E-001	-8.8138711E-001	-2.369294089288085E-001	2.0882653E-004
2	0	0	0	9.869049750686827E+001	-8.8634044E-001	-8.8641220E-001	-2.498457893573997E-001	2.2146635E-004
2	0	0	0	9.919119749421952E+001	-8.9134741E-001	-8.9139754E-001	-2.633991419577013E-001	2.3479335E-004
2	0	0	1	9.969179748157330E+001	-8.9635319E-001	-8.9640814E-001	-2.770254628777797E-001	2.4832788E-004
2	0	0	0	1.001923974689271E+002	-9.0135956E-001	-9.0141994E-001	-2.896657382469279E-001	2.6111046E-004
2	0	0	1	1.006929974562809E+002	-9.0636528E-001	-9.0642977E-001	-3.026538723178298E-001	2.7433448E-004
2	0	0	0	1.011935974436346E+002	-9.1137147E-001	-9.1142094E-001	-3.161565411529468E-001	2.8815170E-004
2	0	0	1	1.016941974309884E+002	-9.1637713E-001	-9.1643810E-001	-3.287973341149022E-001	3.0132240E-004
2	0	0	0	1.021947974183422E+002	-9.2138350E-001	-9.2144012E-001	-3.413022527622576E-001	3.1448959E-004
2	0	0	1	1.026954974056935E+002	-9.2639017E-001	-9.2646289E-001	-3.545723629564206E-001	3.2849814E-004
2	0	0	1	1.031961973930447E+002	-9.3139744E-001	-9.3146914E-001	-3.670927195484488E-001	3.4193555E-004
2	0	0	0	1.036967973803985E+002	-9.3640339E-001	-9.3646735E-001	-3.795585892455757E-001	3.5544424E-004
2	0	0	1	1.041973973677523E+002	-9.4140941E-001	-9.4148797E-001	-3.921616948658411E-001	3.6921553E-004
2	0	0	0	1.046979973551061E+002	-9.4641560E-001	-9.4648856E-001	-4.044193819376991E-001	3.8277832E-004
2	0	0	1	1.051985973424598E+002	-9.5142138E-001	-9.5148933E-001	-4.162020737887340E-001	3.9601183E-004
2	0	0	0	1.056991973298136E+002	-9.5642763E-001	-9.5646828E-001	-4.284532091441571E-001	4.0980190E-004
2	0	0	1	1.061997973171674E+002	-9.6143329E-001	-9.6147329E-001	-4.403582106643471E-001	4.2339266E-004
2	0	0	0	1.067004973045186E+002	-9.6644050E-001	-9.6649241E-001	-4.522684347853225E-001	4.3711401E-004
2	0	0	0	1.072011972918699E+002	-9.7144717E-001	-9.7150654E-001	-4.644701927924206E-001	4.5123583E-004
2	0	0	1	1.077017972792237E+002	-9.7645348E-001	-9.7652072E-001	-4.764815986011168E-001	4.6529414E-004
2	0	0	0	1.082023972665775E+002	-9.8145932E-001	-9.8153466E-001	-4.883771003431741E-001	4.7935906E-004
2	0	0	1	1.087029972539312E+002	-9.8646545E-001	-9.8652542E-001	-4.990990276389446E-001	4.9237389E-004
2	0	0	0	1.092035972412850E+002	-9.9147147E-001	-9.9152535E-001	-5.108853156658277E-001	5.0655572E-004
2	0	0	1	1.097041972286388E+002	-9.9647748E-001	-9.9652189E-001	-5.229239814342979E-001	5.2110519E-004
2	0	0	0	1.100045972210501E+002	-9.9947977E-001	-9.9951893E-001	-5.288755417487296E-001	5.2862114E-004
2	0	0	0	1.100541972197971E+002	-1.0000055E+000	-1.0000241E+000	-5.320636749267580E-001	5.3207646E-004