EC-Lab ASCII FILE
Nb header lines : 55                          

I-V Characterization

Run on channel : 1 (SN 6514)
User : 
CE vs. WE compliance from -10 V to 10 V
Electrode connection : standard
Ewe ctrl range : min = -1.10 V, max = 0.20 V
Safety Limits :
	Do not start on E overload
Acquisition started on : 06/15/2016 18:00:09
Saved on :
	File : B125-G54-UN-G-D1GB-C6 BW 100mVs dark_C01.mpr
	Directory : E:\EC-Lab measurements\B125-G54-UN-G-D1GB\
	Host : 10.0.2.15
Device : VSP (SN 0295)
Address : USB
EC-Lab for windows v11.01 (software)
Internet server v11.00 (firmware)
Command interpretor v11.00 (firmware)
Electrode material : 
Initial state : 
Electrolyte : 
Comments : 
Electrode surface area : 0.001 cm²
Characteristic mass : 0.001 g
Equivalent Weight : 0.000 g/eq.
Density : 0.000 g/cm3
tR (h:m:s)          0:00:0.0000         
dER/dt (mV/h)       0.0                 
dER (mV)            0                   
dtR (s)             0.0000              
dE/dt               100.000             
dE/dt unit          mV/s                
Ei (V)              -1.000              
vs.                 Ref                 
EL (V)              0.100               
vs.                 Ref                 
record              <I>                 
dI                  0.000               
unit dI             µA                  
tI (s)              0.1000              
step percent        100                 
N                   100                 
E range min (V)     -1.100              
E range max (V)     0.200               
I Range             Auto                
I Range min         Unset               
I Range max         Unset               
I Range init        Unset               
Bandwidth           5                   

mode	ox/red	error	control changes	time/s	control/V	Ewe/V	<I>/mA	P/W
2	1	0	1	1.103999972110614E-001	-9.9401462E-001	-9.9415642E-001	-1.493474617600441E-001	1.4847473E-004
2	1	0	0	1.357999965694034E-001	-9.9148524E-001	-9.9151862E-001	-1.498469594283618E-001	1.4857604E-004
2	1	0	0	1.857999953062972E-001	-9.8648280E-001	-9.8650891E-001	-1.511955525165405E-001	1.4915576E-004
2	1	0	1	2.358999940406648E-001	-9.8147631E-001	-9.8152190E-001	-1.522309470514603E-001	1.4941800E-004
2	1	0	1	2.859999927750323E-001	-9.7646463E-001	-9.7650844E-001	-1.528224803888145E-001	1.4923244E-004
2	1	0	1	3.359999915119261E-001	-9.7146332E-001	-9.7150385E-001	-1.527724422452849E-001	1.4841901E-004
2	1	0	1	3.859999902488198E-001	-9.6646571E-001	-9.6650761E-001	-1.521769878438817E-001	1.4708022E-004
2	1	0	0	4.361999889806611E-001	-9.6144366E-001	-9.6145982E-001	-1.514196550075405E-001	1.4558391E-004
2	1	0	0	4.861999877175549E-001	-9.5644414E-001	-9.5644134E-001	-1.504418711365826E-001	1.4388883E-004
2	1	0	0	5.361999864544487E-001	-9.5144534E-001	-9.5147753E-001	-1.494864556174484E-001	1.4223301E-004
2	1	0	1	5.863999851862900E-001	-9.4642293E-001	-9.4645745E-001	-1.480628255377496E-001	1.4013516E-004
2	1	0	1	6.363999839231838E-001	-9.4142586E-001	-9.4146943E-001	-1.463795024127449E-001	1.3781183E-004
2	1	0	1	6.863999826600775E-001	-9.3642479E-001	-9.3645602E-001	-1.447930936152359E-001	1.3559236E-004
2	1	0	0	7.364999813944451E-001	-9.3141294E-001	-9.3146670E-001	-1.431072215687402E-001	1.3329962E-004
2	1	0	0	7.865999801288126E-001	-9.2640603E-001	-9.2644590E-001	-1.413538760291375E-001	1.3095672E-004
2	1	0	0	8.365999788657064E-001	-9.2140388E-001	-9.2143923E-001	-1.394357368801362E-001	1.2848155E-004
2	1	0	1	8.866999776000739E-001	-9.1639376E-001	-9.1643155E-001	-1.375982121762136E-001	1.2609934E-004
2	1	0	1	9.367999763344415E-001	-9.1138572E-001	-9.1142613E-001	-1.355068968111061E-001	1.2350452E-004
2	1	0	1	9.867999750713352E-001	-9.0638316E-001	-9.0643150E-001	-1.335475621905748E-001	1.2105171E-004
2	1	0	0	1.036899973805703E+000	-9.0137529E-001	-9.0141320E-001	-1.317456539686259E-001	1.1875727E-004
2	1	0	0	1.086999972540070E+000	-8.9636487E-001	-8.9639908E-001	-1.296078224772179E-001	1.1618033E-004
2	1	0	0	1.136999971276964E+000	-8.9136243E-001	-8.9140010E-001	-1.276454592226641E-001	1.1378317E-004
2	1	0	1	1.187099970011332E+000	-8.8635600E-001	-8.8640296E-001	-1.258226026652930E-001	1.1152953E-004
2	1	0	1	1.237199968745699E+000	-8.8134396E-001	-8.8138324E-001	-1.238864576550403E-001	1.0919145E-004
2	1	0	1	1.287199967482593E+000	-8.7634319E-001	-8.7637860E-001	-1.219117272307150E-001	1.0684083E-004
2	1	0	1	1.337199966219487E+000	-8.7134570E-001	-8.7141210E-001	-1.198357090081132E-001	1.0442629E-004
2	1	0	0	1.387399964951328E+000	-8.6632341E-001	-8.6639595E-001	-1.176960648938206E-001	1.0197140E-004
2	1	0	0	1.437399963688222E+000	-8.6132491E-001	-8.6137879E-001	-1.157595410239907E-001	9.9712815E-005
2	1	0	0	1.487399962425116E+000	-8.5632473E-001	-8.5637361E-001	-1.133488916261287E-001	9.7069002E-005
2	1	0	1	1.537599961156957E+000	-8.5130280E-001	-8.5135460E-001	-1.113148888206728E-001	9.4768446E-005
2	1	0	1	1.587599959893851E+000	-8.4630561E-001	-8.4636664E-001	-1.097251747224171E-001	9.2867725E-005
2	1	0	1	1.637599958630744E+000	-8.4130424E-001	-8.4134346E-001	-1.078305459667825E-001	9.0722526E-005
2	1	0	0	1.687699957365112E+000	-8.3629298E-001	-8.3634102E-001	-1.058096512275050E-001	8.8492954E-005
2	1	0	0	1.737799956099479E+000	-8.3128595E-001	-8.3134109E-001	-1.040020281101505E-001	8.6461157E-005
2	1	0	0	1.787799954836373E+000	-8.2628340E-001	-8.2633710E-001	-1.023402666021817E-001	8.4567560E-005
2	1	0	1	1.837899953570741E+000	-8.2127458E-001	-8.2133210E-001	-1.004671490205724E-001	8.2516897E-005
2	1	0	1	1.887999952305108E+000	-8.1626493E-001	-8.1631601E-001	-9.856772020637194E-002	8.0462407E-005
2	1	0	1	1.937999951042002E+000	-8.1126261E-001	-8.1131727E-001	-9.677701742901901E-002	7.8516867E-005
2	1	0	0	1.988099949776370E+000	-8.0625516E-001	-8.0629843E-001	-9.494629971327462E-002	7.6555050E-005
2	1	0	0	2.038199948510737E+000	-8.0124420E-001	-8.0126899E-001	-9.327630179893287E-002	7.4739408E-005
2	1	0	0	2.088199947247631E+000	-7.9624242E-001	-7.9629028E-001	-9.178553930428413E-002	7.3087933E-005
2	1	0	0	2.138199945984525E+000	-7.9124600E-001	-7.9128373E-001	-8.999317682885333E-002	7.1210139E-005
2	1	0	1	2.188399944716366E+000	-7.8622335E-001	-7.8624821E-001	-8.842175073720582E-002	6.9521440E-005
2	1	0	1	2.238399943453260E+000	-7.8122395E-001	-7.8126657E-001	-8.686618589991046E-002	6.7865651E-005
2	1	0	1	2.288399942190154E+000	-7.7622527E-001	-7.7627110E-001	-8.504721817703720E-002	6.6019697E-005
2	1	0	0	2.338599940921995E+000	-7.7120280E-001	-7.7124709E-001	-8.337048155543325E-002	6.4299238E-005
2	1	0	0	2.388599939658889E+000	-7.6620460E-001	-7.6624858E-001	-8.188356826826926E-002	6.2743165E-005
2	1	0	0	2.438599938395782E+000	-7.6120448E-001	-7.6124716E-001	-8.033795867309768E-002	6.1157043E-005
2	1	0	1	2.488799937127624E+000	-7.5618196E-001	-7.5621426E-001	-7.891094013647926E-002	5.9673577E-005
2	1	0	1	2.538799935864517E+000	-7.5118607E-001	-7.5121844E-001	-7.730631015510814E-002	5.8073925E-005
2	1	0	1	2.588799934601411E+000	-7.4618357E-001	-7.4621207E-001	-7.574333403663791E-002	5.6520588E-005
2	1	0	0	2.638899933335779E+000	-7.4117351E-001	-7.4119478E-001	-7.435196506800246E-002	5.5109289E-005
2	1	0	0	2.688999932070146E+000	-7.3616529E-001	-7.3618132E-001	-7.289661462725336E-002	5.3665124E-005
2	1	0	0	2.738999930807040E+000	-7.3116285E-001	-7.3117894E-001	-7.158486431129052E-002	5.2341344E-005
2	1	0	1	2.789099929541408E+000	-7.2615427E-001	-7.2618639E-001	-7.021192233142481E-002	5.0986942E-005
2	1	0	1	2.839199928275775E+000	-7.2114444E-001	-7.2116786E-001	-6.891085383960893E-002	4.9696293E-005
2	1	0	1	2.889199927012669E+000	-7.1614200E-001	-7.1617967E-001	-6.753125688948936E-002	4.8364513E-005
2	1	0	0	2.939299925747036E+000	-7.1113569E-001	-7.1117586E-001	-6.616267027723621E-002	4.7053294E-005
2	1	0	0	2.989399924481404E+000	-7.0612383E-001	-7.0615077E-001	-6.483138163549396E-002	4.5780729E-005
2	1	0	0	3.039399923218298E+000	-7.0112300E-001	-7.0115334E-001	-6.351995496633156E-002	4.4537228E-005
2	1	0	0	3.089399921955192E+000	-6.9612563E-001	-6.9616306E-001	-6.202451069522347E-002	4.3179174E-005
2	1	0	1	3.139599920687033E+000	-6.9110298E-001	-6.9114220E-001	-6.079600563261656E-002	4.2018684E-005
2	1	0	1	3.189599919423927E+000	-6.8610364E-001	-6.8612832E-001	-5.941973042093962E-002	4.0769559E-005
2	1	0	1	3.239599918160820E+000	-6.8110472E-001	-6.8113446E-001	-5.837771795095870E-002	3.9763076E-005
2	1	0	0	3.289799916892662E+000	-6.7608225E-001	-6.7612779E-001	-5.710583355721477E-002	3.8610840E-005
2	1	0	0	3.339799915629555E+000	-6.7108494E-001	-6.7112750E-001	-5.613356771176192E-002	3.7672780E-005
2	1	0	0	3.389799914366449E+000	-6.6608393E-001	-6.6611761E-001	-5.503782786812439E-002	3.6661666E-005
2	1	0	1	3.439899913100817E+000	-6.6107243E-001	-6.6110682E-001	-5.390984994088971E-002	3.5640169E-005
2	1	0	1	3.489999911835184E+000	-6.5606552E-001	-6.5611553E-001	-5.275028057035103E-002	3.4610279E-005
2	1	0	1	3.539999910572078E+000	-6.5106308E-001	-6.5111375E-001	-5.167583082730931E-002	3.3646844E-005
2	1	0	0	3.590099909306446E+000	-6.4605314E-001	-6.4609283E-001	-5.055868469279345E-002	3.2665605E-005
2	1	0	0	3.640199908040813E+000	-6.4104462E-001	-6.4108437E-001	-4.944692179388448E-002	3.1699648E-005
2	1	0	0	3.690199906777707E+000	-6.3604254E-001	-6.3610131E-001	-4.834852154080360E-002	3.0754556E-005
2	1	0	1	3.755599905125564E+000	-6.2950623E-001	-6.2953895E-001	-4.683674566924240E-002	2.9485556E-005
2	1	0	0	3.820899903475947E+000	-6.2297440E-001	-6.2303960E-001	-4.554302435684510E-002	2.8375107E-005
2	1	0	0	3.870999902210315E+000	-6.1796427E-001	-6.1805004E-001	-4.463082744571523E-002	2.7584085E-005
2	1	0	0	3.920999900947209E+000	-6.1296189E-001	-6.1301523E-001	-4.365784446257370E-002	2.6762924E-005
2	1	0	1	3.971099899681576E+000	-6.0795498E-001	-6.0800755E-001	-4.275974096731749E-002	2.5998246E-005
2	1	0	1	4.021199898415944E+000	-6.0294348E-001	-6.0298085E-001	-4.177069885994378E-002	2.5186931E-005
2	1	0	1	4.071199897152837E+000	-5.9794235E-001	-5.9800607E-001	-4.104471047133740E-002	2.4544986E-005
2	1	0	1	4.121199895889731E+000	-5.9294522E-001	-5.9300756E-001	-4.012284334737193E-002	2.3793149E-005
2	1	0	0	4.171399894621572E+000	-5.8792269E-001	-5.8796686E-001	-3.923861642727708E-002	2.3071007E-005
2	1	0	0	4.221399893358466E+000	-5.8292395E-001	-5.8297521E-001	-3.839997117136784E-002	2.2386232E-005
2	1	0	0	4.271399892095360E+000	-5.7792431E-001	-5.7798100E-001	-3.766550203750502E-002	2.1769943E-005
2	1	0	1	4.321599890827201E+000	-5.7290190E-001	-5.7295871E-001	-3.677196689728834E-002	2.1068819E-005
2	1	0	1	4.371599889564095E+000	-5.6790459E-001	-5.6797278E-001	-3.603341075472268E-002	2.0465997E-005
2	1	0	1	4.421599888300989E+000	-5.6290376E-001	-5.6296098E-001	-3.525335810288999E-002	1.9846266E-005
2	1	0	0	4.471699887035356E+000	-5.5789196E-001	-5.5797493E-001	-3.434641948950884E-002	1.9164441E-005
2	1	0	0	4.521799885769724E+000	-5.5288553E-001	-5.5293632E-001	-3.344123414718507E-002	1.8490873E-005
2	1	0	0	4.571799884506618E+000	-5.4788291E-001	-5.4793513E-001	-3.290780688870804E-002	1.8031344E-005
2	1	0	1	4.621899883240985E+000	-5.4287350E-001	-5.4292887E-001	-3.214707110324055E-002	1.7453573E-005
2	1	0	1	4.671999881975353E+000	-5.3786457E-001	-5.3791535E-001	-3.144995192965827E-002	1.6917413E-005
2	1	0	1	4.721999880712247E+000	-5.3286213E-001	-5.3292382E-001	-3.080386673394973E-002	1.6416114E-005
2	1	0	0	4.772099879446614E+000	-5.2785420E-001	-5.2789819E-001	-2.996910529706560E-002	1.5820637E-005
2	1	0	0	4.822199878180982E+000	-5.2284384E-001	-5.2290404E-001	-2.909034753050765E-002	1.5211460E-005
2	1	0	0	4.872199876917875E+000	-5.1784152E-001	-5.1791734E-001	-2.865984812126324E-002	1.4843432E-005
2	1	0	0	4.922199875654769E+000	-5.1284552E-001	-5.1289397E-001	-2.814971571209945E-002	1.4437820E-005
2	1	0	1	4.972399874386610E+000	-5.0782305E-001	-5.0787246E-001	-2.755559515537520E-002	1.3994728E-005
2	1	0	1	5.022399873123504E+000	-5.0282311E-001	-5.0289094E-001	-2.700498234272286E-002	1.3580561E-005
2	1	0	1	5.072399871860398E+000	-4.9782467E-001	-4.9788183E-001	-2.648579365737563E-002	1.3186796E-005
2	1	0	0	5.122599870592239E+000	-4.9280217E-001	-4.9286601E-001	-2.577660119745823E-002	1.2704410E-005
2	1	0	0	5.172599869329133E+000	-4.8780379E-001	-4.8785517E-001	-2.514035226185121E-002	1.2264851E-005
2	1	0	0	5.222599868066027E+000	-4.8280388E-001	-4.8284239E-001	-2.458082894026379E-002	1.1868666E-005
2	1	0	1	5.272799866797868E+000	-4.7778139E-001	-4.7781190E-001	-2.395485509245038E-002	1.1445915E-005
2	1	0	1	5.322799865534762E+000	-4.7278517E-001	-4.7281167E-001	-2.352733933884144E-002	1.1124001E-005
2	1	0	1	5.372799864271656E+000	-4.6778330E-001	-4.6781725E-001	-2.296726264552995E-002	1.0744481E-005
2	1	0	0	5.422899863006023E+000	-4.6277264E-001	-4.6280745E-001	-2.239233556646308E-002	1.0363339E-005
2	1	0	0	5.472999861740391E+000	-4.5776489E-001	-4.5779723E-001	-2.199333835268286E-002	1.0068489E-005
2	1	0	0	5.522999860477285E+000	-4.5276245E-001	-4.5279169E-001	-2.133060876619075E-002	9.6583226E-006
2	1	0	1	5.573099859211652E+000	-4.4775340E-001	-4.4779384E-001	-2.092329715543489E-002	9.3693234E-006
2	1	0	1	5.623199857946020E+000	-4.4274414E-001	-4.4278064E-001	-2.050946048124125E-002	9.0811918E-006
2	1	0	1	5.673199856682913E+000	-4.3774170E-001	-4.3777046E-001	-2.005139731201783E-002	8.7779090E-006
2	1	0	0	5.723299855417281E+000	-4.3273479E-001	-4.3274763E-001	-1.965451061948642E-002	8.5054426E-006
2	1	0	0	5.773399854151648E+000	-4.2772338E-001	-4.2775124E-001	-1.914931810887836E-002	8.1911448E-006
2	1	0	0	5.823399852888542E+000	-4.2272216E-001	-4.2275497E-001	-1.865232546996100E-002	7.8853636E-006
2	1	0	0	5.873399851625436E+000	-4.1772497E-001	-4.1776302E-001	-1.821243897198643E-002	7.6084834E-006
2	1	0	1	5.923599850357277E+000	-4.1270253E-001	-4.1272855E-001	-1.787649470686597E-002	7.3781398E-006
2	1	0	1	5.973599849094171E+000	-4.0770292E-001	-4.0772277E-001	-1.744448178347444E-002	7.1125123E-006
2	1	0	1	6.023599847831065E+000	-4.0270415E-001	-4.0273774E-001	-1.715732567003853E-002	6.9099024E-006
2	1	0	0	6.073799846562906E+000	-3.9768198E-001	-3.9772773E-001	-1.679043992839213E-002	6.6780235E-006
2	1	0	0	6.123799845299800E+000	-3.9268422E-001	-3.9272103E-001	-1.641642061415044E-002	6.4470737E-006
2	1	0	0	6.173799844036694E+000	-3.8768360E-001	-3.8772330E-001	-1.591934481297883E-002	6.1723008E-006
2	1	0	1	6.223899842771061E+000	-3.8267168E-001	-3.8270351E-001	-1.559991395366646E-002	5.9701420E-006
2	1	0	1	6.273999841505429E+000	-3.7766519E-001	-3.7769383E-001	-1.510358467256129E-002	5.7045308E-006
2	1	0	1	6.323999840242323E+000	-3.7266263E-001	-3.7269089E-001	-1.467867144661295E-002	5.4706070E-006
2	1	0	0	6.374099838976690E+000	-3.6765245E-001	-3.6767879E-001	-1.432687307680602E-002	5.2676874E-006
2	1	0	0	6.424199837711058E+000	-3.6264434E-001	-3.6269271E-001	-1.411394612002259E-002	5.1190254E-006
2	1	0	0	6.474199836447951E+000	-3.5764205E-001	-3.5767567E-001	-1.382675367020983E-002	4.9454934E-006
2	1	0	1	6.524299835182319E+000	-3.5263371E-001	-3.5266504E-001	-1.344404424185380E-002	4.7412445E-006
2	1	0	1	6.574399833916686E+000	-3.4762362E-001	-3.4764963E-001	-1.327663655459392E-002	4.6156179E-006
2	1	0	1	6.624399832653580E+000	-3.4262159E-001	-3.4264243E-001	-1.302672497828777E-002	4.4635085E-006
2	1	0	0	6.674499831387948E+000	-3.3761472E-001	-3.3764270E-001	-1.263650163276733E-002	4.2666225E-006
2	1	0	0	6.724599830122315E+000	-3.3260265E-001	-3.3261648E-001	-1.225889662652627E-002	4.0775112E-006
2	1	0	0	6.774599828859209E+000	-3.2760191E-001	-3.2761952E-001	-1.195984253331742E-002	3.9182778E-006
2	1	0	0	6.824599827596103E+000	-3.2260445E-001	-3.2263371E-001	-1.163467248123023E-002	3.7537377E-006
2	1	0	1	6.874799826327944E+000	-3.1758231E-001	-3.1763345E-001	-1.120039466269815E-002	3.5576199E-006
2	1	0	1	6.924799825064838E+000	-3.1258318E-001	-3.1262165E-001	-1.094600292470824E-002	3.4219574E-006
2	1	0	1	6.974799823801732E+000	-3.0758375E-001	-3.0763060E-001	-1.076592091567338E-002	3.3119268E-006
2	1	0	0	7.024999822533573E+000	-3.0256173E-001	-3.0260369E-001	-1.041908715229797E-002	3.1528543E-006
2	1	0	0	7.074999821270467E+000	-2.9756421E-001	-2.9760563E-001	-1.016238645932230E-002	3.0243834E-006
2	1	0	0	7.124999820007361E+000	-2.9256290E-001	-2.9259411E-001	-9.927348909318262E-003	2.9046837E-006
2	1	0	1	7.175099818741728E+000	-2.8755152E-001	-2.8759056E-001	-9.698216159864437E-003	2.7891153E-006
2	1	0	1	7.225199817476096E+000	-2.8254452E-001	-2.8257465E-001	-9.331560519586252E-003	2.6368625E-006
2	1	0	1	7.275199816212989E+000	-2.7754241E-001	-2.7757144E-001	-8.983220068090575E-003	2.4934852E-006
2	1	0	0	7.325299814947357E+000	-2.7253276E-001	-2.7256039E-001	-8.743977124095109E-003	2.3832617E-006
2	1	0	0	7.375399813681724E+000	-2.6752380E-001	-2.6755232E-001	-8.530497680598964E-003	2.2823544E-006
2	1	0	0	7.425399812418618E+000	-2.6252174E-001	-2.6256478E-001	-8.410039218245569E-003	2.2081801E-006
2	1	0	1	7.475499811152986E+000	-2.5751382E-001	-2.5753033E-001	-8.251128435505878E-003	2.1249159E-006
2	1	0	1	7.525599809887353E+000	-2.5250322E-001	-2.5252652E-001	-8.040636065753060E-003	2.0304738E-006
2	1	0	1	7.575599808624247E+000	-2.4750109E-001	-2.4754374E-001	-7.767594588174900E-003	1.9228194E-006
2	1	0	0	7.625699807358615E+000	-2.4249472E-001	-2.4255975E-001	-7.577470123168492E-003	1.8379892E-006
2	1	0	0	7.675799806092982E+000	-2.3748273E-001	-2.3753931E-001	-7.272313144410347E-003	1.7274602E-006
2	1	0	0	7.725799804829876E+000	-2.3248228E-001	-2.3253329E-001	-7.074980878050724E-003	1.6451686E-006
2	1	0	0	7.775799803566770E+000	-2.2748406E-001	-2.2754744E-001	-6.861637135123236E-003	1.5613480E-006
2	1	0	1	7.825999802298611E+000	-2.2246195E-001	-2.2252502E-001	-6.632621592765911E-003	1.4759243E-006
2	1	0	1	7.875999801035505E+000	-2.1746334E-001	-2.1751738E-001	-6.473450199212277E-003	1.4080879E-006
2	1	0	1	7.925999799772399E+000	-2.1246330E-001	-2.1251814E-001	-6.262726734502622E-003	1.3309431E-006
2	1	0	0	7.976199798504240E+000	-2.0744120E-001	-2.0750068E-001	-6.057281043071561E-003	1.2568900E-006
2	1	0	0	8.026199797241134E+000	-2.0244427E-001	-2.0250666E-001	-5.846978790440396E-003	1.1840522E-006
2	1	0	0	8.076199795978027E+000	-1.9744276E-001	-1.9750588E-001	-5.607581927973351E-003	1.1075304E-006
2	1	0	1	8.126299794712395E+000	-1.9243179E-001	-1.9248740E-001	-5.419110421984443E-003	1.0431105E-006
2	1	0	1	8.176399793446762E+000	-1.8742411E-001	-1.8747927E-001	-5.242171012104641E-003	9.8279838E-007
2	1	0	1	8.226399792183656E+000	-1.8242198E-001	-1.8248154E-001	-5.072265290165440E-003	9.2559480E-007
2	1	0	0	8.276499790918024E+000	-1.7741282E-001	-1.7744762E-001	-4.871621138918397E-003	8.6445755E-007
2	1	0	0	8.326599789652391E+000	-1.7240356E-001	-1.7244457E-001	-4.727260795865107E-003	8.1519045E-007
2	1	0	0	8.391599788010353E+000	-1.6590296E-001	-1.6593033E-001	-4.485439558428249E-003	7.4427049E-007
2	1	0	1	8.456799786363263E+000	-1.5938134E-001	-1.5940705E-001	-4.280315105386664E-003	6.8231242E-007
2	1	0	1	8.506799785100156E+000	-1.5438370E-001	-1.5440649E-001	-4.062256275758860E-003	6.2723871E-007
2	1	0	1	8.556799783837050E+000	-1.4938274E-001	-1.4940439E-001	-3.844947540247385E-003	5.7445203E-007
2	1	0	0	8.606899782571418E+000	-1.4437120E-001	-1.4438631E-001	-3.666904520951040E-003	5.2945080E-007
2	1	0	0	8.656999781305785E+000	-1.3936456E-001	-1.3935573E-001	-3.558056186241062E-003	4.9583554E-007
2	1	0	0	8.706999780042679E+000	-1.3436215E-001	-1.3436708E-001	-3.369664603863509E-003	4.5277199E-007
2	1	0	1	8.757099778777047E+000	-1.2935226E-001	-1.2936182E-001	-3.263873835617694E-003	4.2222067E-007
2	1	0	1	8.807199777511414E+000	-1.2434371E-001	-1.2435304E-001	-3.104355971698551E-003	3.8603608E-007
2	1	0	1	8.857199776248308E+000	-1.1934142E-001	-1.1934591E-001	-2.930820418412309E-003	3.4978143E-007
2	1	0	0	8.907299774982675E+000	-1.1433329E-001	-1.1433753E-001	-2.773648592233152E-003	3.1713213E-007
2	1	0	0	8.957399773717043E+000	-1.0932285E-001	-1.0934098E-001	-2.611205615071339E-003	2.8551179E-007
2	1	0	0	9.007399772453937E+000	-1.0432074E-001	-1.0433234E-001	-2.452470782934663E-003	2.5587201E-007
2	1	0	1	9.057499771188304E+000	-9.9314474E-002	-9.9309273E-002	-2.291375983156301E-003	2.2755488E-007
2	1	0	1	9.107599769922672E+000	-9.4302423E-002	-9.4310448E-002	-2.140086770056747E-003	2.0183253E-007
2	1	0	1	9.157599768659566E+000	-8.9301772E-002	-8.9318655E-002	-2.035290655165865E-003	1.8178943E-007
2	1	0	1	9.207599767396459E+000	-8.4303916E-002	-8.4322236E-002	-1.859327482036609E-003	1.5678265E-007
2	1	0	0	9.257799766128301E+000	-7.9281673E-002	-7.9301596E-002	-1.677708288409345E-003	1.3304495E-007
2	1	0	0	9.307799764865194E+000	-7.4282818E-002	-7.4290924E-002	-1.552758784444132E-003	1.1535588E-007
2	1	0	0	9.357799763602088E+000	-6.9283150E-002	-6.9305621E-002	-1.403694272190083E-003	9.7283902E-008
2	1	0	1	9.407999762333930E+000	-6.4260930E-002	-6.4286657E-002	-1.257718038537557E-003	8.0854491E-008
2	1	0	1	9.457999761070823E+000	-5.9263956E-002	-5.9268113E-002	-1.122262306305138E-003	6.6514367E-008
2	1	0	1	9.507999759807717E+000	-5.4262470E-002	-5.4280497E-002	-9.864084486017541E-004	5.3542742E-008
2	1	0	0	9.558099758542085E+000	-4.9251273E-002	-4.9261946E-002	-8.492438673802193E-004	4.1835406E-008
2	1	0	0	9.608199757276452E+000	-4.4243962E-002	-4.4257738E-002	-7.175222629787828E-004	3.1755913E-008
2	1	0	0	9.658199756013346E+000	-3.9241705E-002	-3.9252784E-002	-5.814780474915383E-004	2.2824633E-008
2	1	0	1	9.708299754747713E+000	-3.4232356E-002	-3.4253217E-002	-4.687585602841668E-004	1.6056489E-008
2	1	0	1	9.758399753482081E+000	-2.9223440E-002	-2.9227458E-002	-3.453411309209343E-004	1.0093443E-008
2	1	0	1	9.808399752218975E+000	-2.4221158E-002	-2.4237525E-002	-2.093404439118879E-004	5.0738942E-009
2	1	0	0	9.858499750953342E+000	-1.9213438E-002	-1.9222353E-002	-8.218797943049326E-005	1.5798464E-009
2	1	0	0	9.908599749687710E+000	-1.4202687E-002	-1.4220002E-002	4.448223944148176E-005	6.3253752E-010
2	1	0	0	9.958599748424604E+000	-9.2008198E-003	-9.2420056E-003	1.756047960881631E-004	1.6229406E-009
2	1	0	0	1.000859974716150E+001	-4.2042020E-003	-4.2352513E-003	3.034438773716411E-004	1.2851611E-009
2	1	0	1	1.005879974589334E+001	8.1805309E-004	7.9176057E-004	4.293175792142159E-004	3.3991673E-010
2	1	0	1	1.010879974463023E+001	5.8180820E-003	5.7934150E-003	5.550025834288605E-004	3.2153602E-009
2	1	0	1	1.015879974336713E+001	1.0816499E-002	1.0792491E-002	6.778373495837659E-004	7.3155535E-009
2	1	0	0	1.020899974209897E+001	1.5838729E-002	1.5813706E-002	8.035404368150478E-004	1.2706953E-008
2	1	0	0	1.025899974083586E+001	2.0836946E-002	2.0814553E-002	9.237342259526705E-004	1.9227114E-008
2	1	0	0	1.030899973957276E+001	2.5837177E-002	2.5817586E-002	1.043078976343885E-003	2.6929781E-008
2	1	0	1	1.035919973830460E+001	3.0859405E-002	3.0848507E-002	1.163917160853119E-003	3.5905106E-008
2	1	0	1	1.040919973704149E+001	3.5855815E-002	3.5833910E-002	1.286712320162219E-003	4.6107935E-008
2	1	0	1	1.045919973577838E+001	4.0857650E-002	4.0837336E-002	1.396889627309300E-003	5.7045252E-008
2	1	0	0	1.050929973451275E+001	4.5868367E-002	4.5847360E-002	1.521775094774188E-003	6.9769371E-008
2	1	0	0	1.055939973324712E+001	5.0876264E-002	5.0853927E-002	1.645914692278230E-003	8.3701224E-008
2	1	0	0	1.060939973198401E+001	5.5878319E-002	5.5856194E-002	1.757330373439698E-003	9.8157784E-008
2	1	0	1	1.065949973071838E+001	6.0887221E-002	6.0879983E-002	1.863592256102099E-003	1.1345546E-007
2	1	0	1	1.070959972945275E+001	6.5896735E-002	6.5881565E-002	1.998770315404151E-003	1.3168211E-007
2	1	0	1	1.075959972818964E+001	7.0899040E-002	7.0895553E-002	2.096695755965612E-003	1.4864641E-007
2	1	0	0	1.080969972692401E+001	7.5906157E-002	7.5887725E-002	2.187131717660957E-003	1.6597645E-007
2	1	0	0	1.085979972565838E+001	8.0917433E-002	8.0901392E-002	2.288653353830578E-003	1.8515524E-007
2	1	0	0	1.090979972439527E+001	8.5918657E-002	8.5909493E-002	2.411017455169603E-003	2.0712929E-007
2	1	0	0	1.095979972313216E+001	9.0915918E-002	9.0895049E-002	2.519212324935835E-003	2.2898392E-007
2	1	0	1	1.100999972186401E+001	9.5938094E-002	9.5925696E-002	2.623031266004550E-003	2.5161609E-007
2	1	0	1	1.104269972103793E+001	9.9205501E-002	9.9202491E-002	2.715207801156819E-003	2.6935538E-007
2	1	0	0	1.105059972083836E+001	1.0001159E-001	1.0008897E-001	2.715890412218869E-003	2.7183066E-007