EC-Lab ASCII FILE
Nb header lines : 55                          

I-V Characterization

Run on channel : 1 (SN 6514)
User : 
CE vs. WE compliance from -10 V to 10 V
Electrode connection : standard
Ewe ctrl range : min = -1.10 V, max = 0.20 V
Safety Limits :
	Do not start on E overload
Acquisition started on : 06/15/2016 19:22:05
Saved on :
	File : B125-G54-UN-G-D1GB-C15 FW 100mVs dark_C01.mpr
	Directory : E:\EC-Lab measurements\B125-G54-UN-G-D1GB\
	Host : 10.0.2.15
Device : VSP (SN 0295)
Address : USB
EC-Lab for windows v11.01 (software)
Internet server v11.00 (firmware)
Command interpretor v11.00 (firmware)
Electrode material : 
Initial state : 
Electrolyte : 
Comments : 
Electrode surface area : 0.001 cm²
Characteristic mass : 0.001 g
Equivalent Weight : 0.000 g/eq.
Density : 0.000 g/cm3
tR (h:m:s)          0:00:0.0000         
dER/dt (mV/h)       0.0                 
dER (mV)            0                   
dtR (s)             0.0000              
dE/dt               100.000             
dE/dt unit          mV/s                
Ei (V)              0.100               
vs.                 Ref                 
EL (V)              -1.000              
vs.                 Ref                 
record              <I>                 
dI                  0.000               
unit dI             µA                  
tI (s)              0.1000              
step percent        100                 
N                   100                 
E range min (V)     -1.100              
E range max (V)     0.200               
I Range             Auto                
I Range min         Unset               
I Range max         Unset               
I Range init        Unset               
Bandwidth           5                   

mode	ox/red	error	control changes	time/s	control/V	Ewe/V	<I>/mA	P/W
2	0	0	1	8.039999796892516E-002	9.6993521E-002	9.7014889E-002	1.444616878870875E-003	1.4014934E-007
2	0	0	0	1.056999973297934E-001	9.4465211E-002	9.4452269E-002	1.275364969423348E-003	1.2046111E-007
2	0	0	0	1.710999956776504E-001	8.7929122E-002	8.7888807E-002	9.795950416092020E-004	8.6095440E-008
2	0	0	1	2.363999940280337E-001	8.1398934E-002	8.1372388E-002	7.696920775854396E-004	6.2631685E-008
2	0	0	1	2.863999927649274E-001	7.6396704E-002	7.6355644E-002	6.377711447635818E-004	4.8697427E-008
2	0	0	0	3.364999914992950E-001	7.1386509E-002	7.1355022E-002	5.239712716001632E-004	3.7387981E-008
2	0	0	0	3.865999902336625E-001	6.6378236E-002	6.6345982E-002	4.238327833197978E-004	2.8119603E-008
2	0	0	0	4.365999889705563E-001	6.1375830E-002	6.1340980E-002	3.359767698791496E-004	2.0609145E-008
2	0	0	1	4.866999877049238E-001	5.6367833E-002	5.6348011E-002	2.601798888208892E-004	1.4660619E-008
2	0	0	1	5.367999864392914E-001	5.1357362E-002	5.1309153E-002	1.929938274591195E-004	9.9023501E-009
2	0	0	1	5.867999851761851E-001	4.6355389E-002	4.6309870E-002	1.336970052304965E-004	6.1914909E-009
2	0	0	1	6.367999839130789E-001	4.1359074E-002	4.1314892E-002	8.156401426627513E-005	3.3698084E-009
2	0	0	0	6.869999826449202E-001	3.6336713E-002	3.6296360E-002	3.535364172429454E-005	1.2832085E-009
2	0	0	0	7.369999813818140E-001	3.1336755E-002	3.1298798E-002	-5.403347923404499E-006	1.6911829E-010
2	0	0	0	7.869999801187078E-001	2.6338194E-002	2.6279613E-002	-4.179755537167150E-005	1.0984236E-009
2	0	0	1	8.371999788505491E-001	2.1315835E-002	2.1277003E-002	-7.400805680462738E-005	1.5746696E-009
2	0	0	1	8.871999775874428E-001	1.6318094E-002	1.6266877E-002	-1.021484251459968E-004	1.6616358E-009
2	0	0	1	9.371999763243366E-001	1.1317321E-002	1.1265686E-002	-1.286114306870631E-004	1.4488960E-009
2	0	0	0	9.872999750587041E-001	6.3056569E-003	6.2621133E-003	-1.521437918638418E-004	9.5274166E-010
2	0	0	0	1.037399973793072E+000	1.2990338E-003	1.2556786E-003	-1.729126018131790E-004	2.1712265E-010
2	0	0	0	1.087399972529965E+000	-3.7033611E-003	-3.7580773E-003	-1.922201795353119E-004	7.2237827E-010
2	0	0	1	1.137499971264333E+000	-8.7130331E-003	-8.7711932E-003	-2.100236090258065E-004	1.8421576E-009
2	0	0	1	1.187599969998701E+000	-1.3721895E-002	-1.3761315E-002	-2.259402144196162E-004	3.1092346E-009
2	0	0	1	1.237599968735594E+000	-1.8724302E-002	-1.8756522E-002	-2.408771487696355E-004	4.5180175E-009
2	0	0	0	1.287699967469962E+000	-2.3731761E-002	-2.3775499E-002	-2.547173911036952E-004	6.0560330E-009
2	0	0	0	1.337799966204329E+000	-2.8742639E-002	-2.8778698E-002	-2.679196681956526E-004	7.7103790E-009
2	0	0	0	1.387799964941223E+000	-3.3744227E-002	-3.3786383E-002	-2.797678484199183E-004	9.4523438E-009
2	0	0	0	1.437799963678117E+000	-3.8741175E-002	-3.8784970E-002	-2.910813754212831E-004	1.1289583E-008
2	0	0	1	1.487999962409958E+000	-4.3763574E-002	-4.3820072E-002	-3.019483727517021E-004	1.3231399E-008
2	0	0	1	1.537999961146852E+000	-4.8762985E-002	-4.8804808E-002	-3.118464512157238E-004	1.5219607E-008
2	0	0	1	1.587999959883746E+000	-5.3762134E-002	-5.3798787E-002	-3.217098594454956E-004	1.7307601E-008
2	0	0	0	1.638199958615587E+000	-5.8784347E-002	-5.8821071E-002	-3.311643933414444E-004	1.9479444E-008
2	0	0	0	1.688199957352481E+000	-6.3781686E-002	-6.3822158E-002	-3.404692870814865E-004	2.1729484E-008
2	0	0	0	1.738199956089375E+000	-6.8782844E-002	-6.8817347E-002	-3.494953108852594E-004	2.4051340E-008
2	0	0	1	1.788299954823742E+000	-7.3794171E-002	-7.3826663E-002	-3.580374686253177E-004	2.6432712E-008
2	0	0	1	1.838399953558110E+000	-7.8801356E-002	-7.8830063E-002	-3.671209054180308E-004	2.8940164E-008
2	0	0	1	1.888399952295003E+000	-8.3803780E-002	-8.3847038E-002	-3.761567188999247E-004	3.1539628E-008
2	0	0	0	1.938499951029371E+000	-8.8812873E-002	-8.8865198E-002	-3.841807299725195E-004	3.4140296E-008
2	0	0	0	1.988599949763739E+000	-9.3822084E-002	-9.3857512E-002	-3.922984007473131E-004	3.6820150E-008
2	0	0	0	2.038599948500632E+000	-9.8824568E-002	-9.8856218E-002	-4.009665932384605E-004	3.9638042E-008
2	0	0	1	2.088699947235000E+000	-1.0383155E-001	-1.0385931E-001	-4.095726867648095E-004	4.2537938E-008
2	0	0	1	2.138799945969367E+000	-1.0884300E-001	-1.0887957E-001	-4.182135029597422E-004	4.5534904E-008
2	0	0	1	2.188799944706261E+000	-1.1384419E-001	-1.1387946E-001	-4.270520668290534E-004	4.8632462E-008
2	0	0	1	2.238799943443155E+000	-1.1884167E-001	-1.1887264E-001	-4.360655011305852E-004	5.1836260E-008
2	0	0	0	2.288999942174996E+000	-1.2386402E-001	-1.2389620E-001	-4.457719624520741E-004	5.5229449E-008
2	0	0	0	2.338999940911890E+000	-1.2886286E-001	-1.2889603E-001	-4.543188833693917E-004	5.8559898E-008
2	0	0	0	2.388999939648784E+000	-1.3386235E-001	-1.3387643E-001	-4.642523824198892E-004	6.2152452E-008
2	0	0	1	2.439199938380625E+000	-1.3888477E-001	-1.3891503E-001	-4.747928934744853E-004	6.5955867E-008
2	0	0	1	2.489199937117519E+000	-1.4388163E-001	-1.4393614E-001	-4.847355803266288E-004	6.9770969E-008
2	0	0	1	2.539199935854413E+000	-1.4888336E-001	-1.4893006E-001	-4.954284699155188E-004	7.3784193E-008
2	0	0	0	2.589299934588780E+000	-1.5389392E-001	-1.5394074E-001	-5.056987934529411E-004	7.7847645E-008
2	0	0	0	2.639399933323148E+000	-1.5890183E-001	-1.5894575E-001	-5.168325719530859E-004	8.2148340E-008
2	0	0	0	2.689399932060041E+000	-1.6390401E-001	-1.6396196E-001	-5.280984866425438E-004	8.6588066E-008
2	0	0	1	2.739499930794409E+000	-1.6891268E-001	-1.6896202E-001	-5.401824000580671E-004	9.1270309E-008
2	0	0	1	2.789599929528777E+000	-1.7392249E-001	-1.7399067E-001	-5.534169695673675E-004	9.6289391E-008
2	0	0	1	2.839599928265670E+000	-1.7892505E-001	-1.7898060E-001	-5.666517585158821E-004	1.0141967E-007
2	0	0	0	2.889699927000038E+000	-1.8393146E-001	-1.8399699E-001	-5.802757710346874E-004	1.0676899E-007
2	0	0	0	2.939799925734405E+000	-1.8894343E-001	-1.8900579E-001	-5.950012690033391E-004	1.1245869E-007
2	0	0	0	2.989799924471299E+000	-1.9394398E-001	-1.9402109E-001	-6.097204004092433E-004	1.1829862E-007
2	0	0	0	3.039799923208193E+000	-1.9894172E-001	-1.9901326E-001	-6.263919768822960E-004	1.2466032E-007
2	0	0	1	3.089999921940034E+000	-2.0396422E-001	-2.0402586E-001	-6.435278323002514E-004	1.3129632E-007
2	0	0	1	3.139999920676928E+000	-2.0896278E-001	-2.0902891E-001	-6.613364682547460E-004	1.3823845E-007
2	0	0	1	3.189999919413822E+000	-2.1396297E-001	-2.1402393E-001	-6.787498349137347E-004	1.4526871E-007
2	0	0	0	3.240099918148189E+000	-2.1897505E-001	-2.1904272E-001	-6.951929686133049E-004	1.5227695E-007
2	0	0	0	3.290199916882557E+000	-2.2398150E-001	-2.2405092E-001	-7.149754939268903E-004	1.6019092E-007
2	0	0	0	3.340199915619451E+000	-2.2898370E-001	-2.2905388E-001	-7.355554717601845E-004	1.6848183E-007
2	0	0	1	3.390299914353818E+000	-2.3399378E-001	-2.3405939E-001	-7.595330003625847E-004	1.7777583E-007
2	0	0	1	3.440399913088186E+000	-2.3900221E-001	-2.3907550E-001	-7.812639530715738E-004	1.8678107E-007
2	0	0	1	3.490399911825079E+000	-2.4400450E-001	-2.4407250E-001	-8.077729407217626E-004	1.9715516E-007
2	0	0	0	3.540499910559447E+000	-2.4901254E-001	-2.4905112E-001	-8.318378411831719E-004	2.0717015E-007
2	0	0	0	3.590599909293815E+000	-2.5402313E-001	-2.5406480E-001	-8.597029460646506E-004	2.1842025E-007
2	0	0	0	3.640599908030708E+000	-2.5902519E-001	-2.5906658E-001	-8.872666659608033E-004	2.2986114E-007
2	0	0	0	3.690599906767602E+000	-2.6402122E-001	-2.6407769E-001	-9.156704958142668E-004	2.4180815E-007
2	0	0	1	3.740799905499443E+000	-2.6904374E-001	-2.6909572E-001	-9.462252974560209E-004	2.5462518E-007
2	0	0	1	3.790799904236337E+000	-2.7404371E-001	-2.7408785E-001	-9.769553193820085E-004	2.6777158E-007
2	0	0	1	3.840799902973231E+000	-2.7904239E-001	-2.7908319E-001	-1.009943523063470E-003	2.8185826E-007
2	0	0	0	3.890999901705072E+000	-2.8406462E-001	-2.8411734E-001	-1.047912970265260E-003	2.9773025E-007
2	0	0	0	3.940999900441966E+000	-2.8906259E-001	-2.8910151E-001	-1.083282032395674E-003	3.1317848E-007
2	0	0	0	3.990999899178860E+000	-2.9406303E-001	-2.9409966E-001	-1.124412035573046E-003	3.3068920E-007
2	0	0	1	4.041099897913227E+000	-2.9907477E-001	-2.9912540E-001	-1.169719481392944E-003	3.4989282E-007
2	0	0	1	4.091199896647595E+000	-3.0408183E-001	-3.0414003E-001	-1.211396997336451E-003	3.6843431E-007
2	0	0	1	4.141199895384489E+000	-3.0908397E-001	-3.0913362E-001	-1.254482135043734E-003	3.8780260E-007
2	0	0	0	4.191299894118856E+000	-3.1409356E-001	-3.1415021E-001	-1.300431259616271E-003	4.0853075E-007
2	0	0	0	4.241399892853224E+000	-3.1910267E-001	-3.1916505E-001	-1.349619618041779E-003	4.3075141E-007
2	0	0	0	4.291399891590117E+000	-3.2410502E-001	-3.2416397E-001	-1.404539211964603E-003	4.5530101E-007
2	0	0	1	4.341499890324485E+000	-3.2911223E-001	-3.2913893E-001	-1.457189436538200E-003	4.7961777E-007
2	0	0	1	4.391599889058853E+000	-3.3412349E-001	-3.3413565E-001	-1.513424151885059E-003	5.0568894E-007
2	0	0	1	4.441599887795746E+000	-3.3912471E-001	-3.3916062E-001	-1.585073723102542E-003	5.3759459E-007
2	0	0	1	4.491599886532640E+000	-3.4412181E-001	-3.4415650E-001	-1.649915878120793E-003	5.6782926E-007
2	0	0	0	4.541799885264481E+000	-3.4914425E-001	-3.4918606E-001	-1.717381697962310E-003	5.9968573E-007
2	0	0	0	4.591799884001375E+000	-3.5414377E-001	-3.5418463E-001	-1.787476768984254E-003	6.3309682E-007
2	0	0	0	4.641799882738269E+000	-3.5914260E-001	-3.5919639E-001	-1.860446410748184E-003	6.6826567E-007
2	0	0	1	4.691999881470110E+000	-3.6416501E-001	-3.6422828E-001	-1.946757407364965E-003	7.0906412E-007
2	0	0	1	4.741999880207004E+000	-3.6916226E-001	-3.6921409E-001	-2.024333730600410E-003	7.4741251E-007
2	0	0	1	4.791999878943898E+000	-3.7416348E-001	-3.7420881E-001	-2.111416360527477E-003	7.9011062E-007
2	0	0	0	4.842099877678265E+000	-3.7917474E-001	-3.7923217E-001	-2.199591875655049E-003	8.3415597E-007
2	0	0	0	4.892199876412633E+000	-3.8418227E-001	-3.8423598E-001	-2.297912235083098E-003	8.8294058E-007
2	0	0	0	4.942199875149527E+000	-3.8918447E-001	-3.8922805E-001	-2.399393798643713E-003	9.3391134E-007
2	0	0	1	4.992299873883894E+000	-3.9419344E-001	-3.9425132E-001	-2.505653434873654E-003	9.8785722E-007
2	0	0	1	5.042399872618262E+000	-3.9920300E-001	-3.9927116E-001	-2.622262258424893E-003	1.0469937E-006
2	0	0	1	5.092399871355155E+000	-4.0420499E-001	-4.0425766E-001	-2.735741013392825E-003	1.1059442E-006
2	0	0	0	5.142499870089523E+000	-4.0921217E-001	-4.0924489E-001	-2.857612929676432E-003	1.1694635E-006
2	0	0	0	5.192599868823891E+000	-4.1422391E-001	-4.1427276E-001	-2.982758579400210E-003	1.2356757E-006
2	0	0	0	5.242599867560784E+000	-4.1922498E-001	-4.1927108E-001	-3.111633245274528E-003	1.3046179E-006
2	0	0	0	5.292599866297678E+000	-4.2422217E-001	-4.2427307E-001	-3.253983150950924E-003	1.3805775E-006
2	0	0	1	5.342799865029519E+000	-4.2924482E-001	-4.2928660E-001	-3.397894702333981E-003	1.4586707E-006
2	0	0	1	5.392799863766413E+000	-4.3424323E-001	-4.3428579E-001	-3.553920375463353E-003	1.5434172E-006
2	0	0	1	5.442799862503307E+000	-4.3924299E-001	-4.3928802E-001	-3.718793869444785E-003	1.6336217E-006
2	0	0	0	5.492999861235148E+000	-4.4426548E-001	-4.4430602E-001	-3.889920622064853E-003	1.7283152E-006
2	0	0	0	5.542999859972042E+000	-4.4926247E-001	-4.4929829E-001	-4.073743710077033E-003	1.8303261E-006
2	0	0	0	5.592999858708936E+000	-4.5426390E-001	-4.5432225E-001	-4.263746133652532E-003	1.9371148E-006
2	0	0	1	5.643099857443303E+000	-4.5927483E-001	-4.5932391E-001	-4.459674382522934E-003	2.0484351E-006
2	0	0	1	5.693199856177671E+000	-4.6428239E-001	-4.6432602E-001	-4.667221118341971E-003	2.1671121E-006
2	0	0	1	5.743199854914565E+000	-4.6928456E-001	-4.6933132E-001	-4.890291977756846E-003	2.2951672E-006
2	0	0	0	5.793299853648932E+000	-4.7429329E-001	-4.7434700E-001	-5.115495369315493E-003	2.4265198E-006
2	0	0	0	5.843399852383300E+000	-4.7930351E-001	-4.7935233E-001	-5.351401337601251E-003	2.5652066E-006
2	0	0	0	5.893399851120193E+000	-4.8430577E-001	-4.8435715E-001	-5.593618531887001E-003	2.7093092E-006
2	0	0	1	5.943499849854561E+000	-4.8931205E-001	-4.8937717E-001	-5.852405615502987E-003	2.8640336E-006
2	0	0	1	5.993599848588929E+000	-4.9432412E-001	-4.9437755E-001	-6.125823344616532E-003	3.0284696E-006
2	0	0	1	6.043599847325822E+000	-4.9932435E-001	-4.9938852E-001	-6.423956945454862E-003	3.2080504E-006
2	0	0	1	6.093599846062716E+000	-5.0432259E-001	-5.0438684E-001	-6.727651557140668E-003	3.3933388E-006
2	0	0	0	6.143799844794557E+000	-5.0934500E-001	-5.0940329E-001	-7.038252697543212E-003	3.5853091E-006
2	0	0	0	6.193799843531451E+000	-5.1434350E-001	-5.1442128E-001	-7.374958834486231E-003	3.7938357E-006
2	0	0	0	6.243799842268345E+000	-5.1934320E-001	-5.1941276E-001	-7.707197234594697E-003	4.0032164E-006
2	0	0	1	6.293899841002712E+000	-5.2435595E-001	-5.2442878E-001	-8.064321213782637E-003	4.2291622E-006
2	0	0	1	6.343999839737080E+000	-5.2936172E-001	-5.2941275E-001	-8.436356430910841E-003	4.4663147E-006
2	0	0	1	6.393999838473974E+000	-5.3436434E-001	-5.3443819E-001	-8.822545604545692E-003	4.7151052E-006
2	0	0	0	6.444099837208341E+000	-5.3937453E-001	-5.3942841E-001	-9.247628953388352E-003	4.9884338E-006
2	0	0	0	6.494199835942709E+000	-5.4438323E-001	-5.4444629E-001	-9.674985720633203E-003	5.2675100E-006
2	0	0	0	6.559199834300671E+000	-5.5088359E-001	-5.5094111E-001	-1.027109203235725E-002	5.6587669E-006
2	0	0	1	6.624399832653580E+000	-5.5740523E-001	-5.5746853E-001	-1.088574009271945E-002	6.0684574E-006
2	0	0	1	6.674399831390474E+000	-5.6240284E-001	-5.6244427E-001	-1.138168269106585E-002	6.4015621E-006
2	0	0	1	6.724399830127368E+000	-5.6740361E-001	-5.6746006E-001	-1.192071719510868E-002	6.7645310E-006
2	0	0	0	6.774499828861735E+000	-5.7241565E-001	-5.7247663E-001	-1.245543147552053E-002	7.1304435E-006
2	0	0	0	6.824599827596103E+000	-5.7742232E-001	-5.7747155E-001	-1.300942244031280E-002	7.5125713E-006
2	0	0	0	6.874599826332997E+000	-5.8242428E-001	-5.8246988E-001	-1.360199186631189E-002	7.9227502E-006
2	0	0	1	6.924699825067364E+000	-5.8743459E-001	-5.8747602E-001	-1.423215845579674E-002	8.3610521E-006
2	0	0	1	6.974799823801732E+000	-5.9244275E-001	-5.9249055E-001	-1.486698745830191E-002	8.8085499E-006
2	0	0	1	7.024799822538625E+000	-5.9744525E-001	-5.9749115E-001	-1.553302603646872E-002	9.2808459E-006
2	0	0	0	7.074899821272993E+000	-6.0245311E-001	-6.0250342E-001	-1.626394711345949E-002	9.7990842E-006
2	0	0	0	7.124999820007361E+000	-6.0746402E-001	-6.0752034E-001	-1.696726448814218E-002	1.0307958E-005
2	0	0	0	7.174999818744254E+000	-6.1246550E-001	-6.1254686E-001	-1.769017449128422E-002	1.0836061E-005
2	0	0	0	7.224999817481148E+000	-6.1746264E-001	-6.1751729E-001	-1.847523108226173E-002	1.1408774E-005
2	0	0	1	7.275199816212989E+000	-6.2248462E-001	-6.2254369E-001	-1.928937105938941E-002	1.2008476E-005
2	0	0	1	7.325199814949883E+000	-6.2748396E-001	-6.2753558E-001	-2.014300472296515E-002	1.2640452E-005
2	0	0	1	7.375199813686777E+000	-6.3248312E-001	-6.3254142E-001	-2.101777675651165E-002	1.3294614E-005
2	0	0	0	7.425399812418618E+000	-6.3750553E-001	-6.3755184E-001	-2.193788590680418E-002	1.3986540E-005
2	0	0	0	7.475399811155512E+000	-6.4250302E-001	-6.4254355E-001	-2.288313288101868E-002	1.4703410E-005
2	0	0	0	7.525399809892406E+000	-6.4750403E-001	-6.4753211E-001	-2.386396839975369E-002	1.5452686E-005
2	0	0	1	7.575499808626773E+000	-6.5251559E-001	-6.5256119E-001	-2.487915228582635E-002	1.6235170E-005
2	0	0	1	7.625599807361141E+000	-6.5752250E-001	-6.5754092E-001	-2.589981329766516E-002	1.7030186E-005
2	0	0	1	7.675599806098035E+000	-6.6252476E-001	-6.6255450E-001	-2.699084472164548E-002	1.7882905E-005
2	0	0	0	7.725699804832402E+000	-6.6753417E-001	-6.6756094E-001	-2.810933148559763E-002	1.8764691E-005
2	0	0	0	7.775799803566770E+000	-6.7254353E-001	-6.7256594E-001	-2.925958388979777E-002	1.9678999E-005
2	0	0	0	7.825799802303663E+000	-6.7754585E-001	-6.7757201E-001	-3.049458077736755E-002	2.0662275E-005
2	0	0	1	7.875899801038031E+000	-6.8255311E-001	-6.8257499E-001	-3.173579707237273E-002	2.1662061E-005
2	0	0	1	7.925999799772399E+000	-6.8756402E-001	-6.8759197E-001	-3.299577619031108E-002	2.2687631E-005
2	0	0	1	7.975999798509292E+000	-6.9256526E-001	-6.9259101E-001	-3.436347779023158E-002	2.3799836E-005
2	0	0	1	8.025999797246186E+000	-6.9756287E-001	-6.9759339E-001	-3.576788261975120E-002	2.4951438E-005
2	0	0	0	8.076199795978027E+000	-7.0258498E-001	-7.0261037E-001	-3.717930502199251E-002	2.6122565E-005
2	0	0	0	8.126199794714921E+000	-7.0758408E-001	-7.0761192E-001	-3.862687519018215E-002	2.7332837E-005
2	0	0	0	8.176199793451815E+000	-7.1258402E-001	-7.1259964E-001	-4.016403345890540E-002	2.8620876E-005
2	0	0	1	8.226399792183656E+000	-7.1760613E-001	-7.1763164E-001	-4.173675825085776E-002	2.9951618E-005
2	0	0	1	8.276399790920550E+000	-7.2260261E-001	-7.2263396E-001	-4.330565021350626E-002	3.1294134E-005
2	0	0	1	8.326399789657444E+000	-7.2760463E-001	-7.2762227E-001	-4.498317365519156E-002	3.2730761E-005
2	0	0	0	8.376499788391811E+000	-7.3261529E-001	-7.3261446E-001	-4.672324355477131E-002	3.4230125E-005
2	0	0	0	8.426599787126179E+000	-7.3762304E-001	-7.3763055E-001	-4.847587009528209E-002	3.5757283E-005
2	0	0	0	8.476599785863073E+000	-7.4262542E-001	-7.4263817E-001	-5.028524322238603E-002	3.7343740E-005
2	0	0	1	8.526699784597440E+000	-7.4763441E-001	-7.4765408E-001	-5.217001295845064E-002	3.9005125E-005
2	0	0	1	8.576799783331808E+000	-7.5264382E-001	-7.5266355E-001	-5.413521382157954E-002	4.0745603E-005
2	0	0	1	8.626799782068701E+000	-7.5764620E-001	-7.5767004E-001	-5.612238980203321E-002	4.2522253E-005
2	0	0	0	8.676899780803069E+000	-7.6265275E-001	-7.6268160E-001	-5.814371398207707E-002	4.4345143E-005
2	0	0	0	8.726999779537437E+000	-7.6766455E-001	-7.6770633E-001	-6.022730652746655E-002	4.6236884E-005
2	0	0	0	8.776999778274330E+000	-7.7266538E-001	-7.7269435E-001	-6.237943085875081E-002	4.8200232E-005
2	0	0	0	8.826999777011224E+000	-7.7766347E-001	-7.7770585E-001	-6.460211476030070E-002	5.0241444E-005
2	0	0	1	8.877199775743065E+000	-7.8268552E-001	-7.8271800E-001	-6.685292010488911E-002	5.2326985E-005
2	0	0	1	8.927199774479959E+000	-7.8768390E-001	-7.8772569E-001	-6.917810477894412E-002	5.4493372E-005
2	0	0	1	8.977199773216853E+000	-7.9268408E-001	-7.9271734E-001	-7.152272658975178E-002	5.6697307E-005
2	0	0	0	9.027399771948694E+000	-7.9770601E-001	-7.9774618E-001	-7.394726033678323E-002	5.8991143E-005
2	0	0	0	9.077399770685588E+000	-8.0270272E-001	-8.0273402E-001	-7.642322142730129E-002	6.1347520E-005
2	0	0	0	9.127399769422482E+000	-8.0770510E-001	-8.0776638E-001	-7.895023246311716E-002	6.3773346E-005
2	0	0	1	9.177499768156849E+000	-8.1271553E-001	-8.1276709E-001	-8.157792063462821E-002	6.6303852E-005
2	0	0	1	9.227599766891217E+000	-8.1772327E-001	-8.1778002E-001	-8.424985458102829E-002	6.8897847E-005
2	0	0	1	9.277599765628111E+000	-8.2272601E-001	-8.2278568E-001	-8.691995193321445E-002	7.1516493E-005
2	0	0	0	9.327699764362478E+000	-8.2773381E-001	-8.2779396E-001	-8.973116589376628E-002	7.4278920E-005
2	0	0	0	9.377799763096846E+000	-8.3274400E-001	-8.3280832E-001	-9.256527879027487E-002	7.7089135E-005
2	0	0	0	9.427799761833739E+000	-8.3774650E-001	-8.3779937E-001	-9.543343432698359E-002	7.9954072E-005
2	0	0	0	9.477799760570633E+000	-8.4274310E-001	-8.4277767E-001	-9.837799002523284E-002	8.2910774E-005
2	0	0	1	9.527999759302475E+000	-8.4776515E-001	-8.4780937E-001	-1.013659275245549E-001	8.5938984E-005
2	0	0	1	9.592999757660436E+000	-8.5426503E-001	-8.5433280E-001	-1.055203746342031E-001	9.0149515E-005
2	0	0	0	9.658099756015872E+000	-8.6077487E-001	-8.6083037E-001	-1.096238479690693E-001	9.4367540E-005
2	0	0	0	9.708199754750240E+000	-8.6578381E-001	-8.6585361E-001	-1.128871991461877E-001	9.7743789E-005
2	0	0	0	9.758199753487133E+000	-8.7078607E-001	-8.7084329E-001	-1.161531179873259E-001	1.0115116E-004
2	0	0	1	9.808299752221501E+000	-8.7579417E-001	-8.7583888E-001	-1.194884743776412E-001	1.0465265E-004
2	0	0	1	9.858399750955869E+000	-8.8080442E-001	-8.8083434E-001	-1.229155296481279E-001	1.0826822E-004
2	0	0	1	9.908399749692762E+000	-8.8580656E-001	-8.8584167E-001	-1.264258508583145E-001	1.1199329E-004
2	0	0	1	9.958399748429656E+000	-8.9080280E-001	-8.9083999E-001	-1.298861989033382E-001	1.1570782E-004
2	0	0	0	1.000859974716150E+001	-8.9582503E-001	-8.9586681E-001	-1.334712964079903E-001	1.1957251E-004
2	0	0	0	1.005859974589839E+001	-9.0082514E-001	-9.0086800E-001	-1.371691651679148E-001	1.2357131E-004
2	0	0	0	1.010859974463528E+001	-9.0582418E-001	-9.0587741E-001	-1.409082307149085E-001	1.2764559E-004
2	0	0	1	1.015879974336713E+001	-9.1084629E-001	-9.1089642E-001	-1.448075196601915E-001	1.3190466E-004
2	0	0	1	1.020879974210402E+001	-9.1584384E-001	-9.1587603E-001	-1.486756756439114E-001	1.3616848E-004
2	0	0	1	1.025879974084091E+001	-9.2084467E-001	-9.2087585E-001	-1.525862814567254E-001	1.4051302E-004
2	0	0	0	1.030889973957528E+001	-9.2585599E-001	-9.2589635E-001	-1.565537641160146E-001	1.4495256E-004
2	0	0	0	1.035899973830965E+001	-9.3086308E-001	-9.3090570E-001	-1.605465155162435E-001	1.4945367E-004
2	0	0	0	1.040899973704654E+001	-9.3586564E-001	-9.3591017E-001	-1.646950918344281E-001	1.5413981E-004
2	0	0	1	1.045909973578091E+001	-9.4087517E-001	-9.4091767E-001	-1.688899596013700E-001	1.5891154E-004
2	0	0	1	1.050919973451528E+001	-9.4588405E-001	-9.4592810E-001	-1.731670073777878E-001	1.6380353E-004
2	0	0	1	1.055919973325217E+001	-9.5088643E-001	-9.5092869E-001	-1.774428324444967E-001	1.6873548E-004
2	0	0	0	1.060929973198654E+001	-9.5589346E-001	-9.5590913E-001	-1.818019884379865E-001	1.7378617E-004
2	0	0	0	1.065939973072091E+001	-9.6090466E-001	-9.6091962E-001	-1.862838091313075E-001	1.7900376E-004
2	0	0	0	1.070939972945780E+001	-9.6590620E-001	-9.6594524E-001	-1.907944878557299E-001	1.8429702E-004
2	0	0	0	1.075939972819469E+001	-9.7090364E-001	-9.7094262E-001	-1.953119701880013E-001	1.8963672E-004
2	0	0	1	1.080959972692654E+001	-9.7592562E-001	-9.7596335E-001	-1.999469661278690E-001	1.9514091E-004
2	0	0	1	1.085959972566343E+001	-9.8092502E-001	-9.8096859E-001	-2.047685967625741E-001	2.0087157E-004
2	0	0	1	1.090959972440032E+001	-9.8592401E-001	-9.8597550E-001	-2.095699234362813E-001	2.0663081E-004
2	0	0	0	1.095979972313216E+001	-9.9094623E-001	-9.9098259E-001	-2.144316196591372E-001	2.1249801E-004
2	0	0	0	1.100979972186906E+001	-9.9594361E-001	-9.9596334E-001	-2.192584655324445E-001	2.1837339E-004
2	0	0	0	1.104249972104299E+001	-9.9921608E-001	-9.9924690E-001	-2.224130351559457E-001	2.2224554E-004
2	0	0	1	1.105039972084342E+001	-1.0000215E+000	-9.9998063E-001	-2.232007384300232E-001	2.2319642E-004