EC-Lab ASCII FILE
Nb header lines : 55                          

I-V Characterization

Run on channel : 1 (SN 6514)
User : 
CE vs. WE compliance from -10 V to 10 V
Electrode connection : standard
Ewe ctrl range : min = -1.10 V, max = 0.20 V
Safety Limits :
	Do not start on E overload
Acquisition started on : 06/15/2016 18:29:49
Saved on :
	File : B125-G54-UN-G-D1GB-C8 BW 100mVs dark_C01.mpr
	Directory : E:\EC-Lab measurements\B125-G54-UN-G-D1GB\
	Host : 10.0.2.15
Device : VSP (SN 0295)
Address : USB
EC-Lab for windows v11.01 (software)
Internet server v11.00 (firmware)
Command interpretor v11.00 (firmware)
Electrode material : 
Initial state : 
Electrolyte : 
Comments : 
Electrode surface area : 0.001 cm²
Characteristic mass : 0.001 g
Equivalent Weight : 0.000 g/eq.
Density : 0.000 g/cm3
tR (h:m:s)          0:00:0.0000         
dER/dt (mV/h)       0.0                 
dER (mV)            0                   
dtR (s)             0.0000              
dE/dt               100.000             
dE/dt unit          mV/s                
Ei (V)              -1.000              
vs.                 Ref                 
EL (V)              0.100               
vs.                 Ref                 
record              <I>                 
dI                  0.000               
unit dI             µA                  
tI (s)              0.1000              
step percent        100                 
N                   100                 
E range min (V)     -1.100              
E range max (V)     0.200               
I Range             Auto                
I Range min         Unset               
I Range max         Unset               
I Range init        Unset               
Bandwidth           5                   

mode	ox/red	error	control changes	time/s	control/V	Ewe/V	<I>/mA	P/W
2	1	0	1	8.039999796892516E-002	-9.9701774E-001	-9.9682945E-001	-5.473978631198406E-002	5.4566230E-005
2	1	0	0	1.057999973272672E-001	-9.9448204E-001	-9.9449390E-001	-5.473708166905888E-002	5.4435695E-005
2	1	0	0	1.557999960641610E-001	-9.8948532E-001	-9.8951936E-001	-5.527219542904755E-002	5.4692908E-005
2	1	0	0	2.057999948010547E-001	-9.8448354E-001	-9.8451596E-001	-5.603921720017058E-002	5.5171506E-005
2	1	0	1	2.558999935354223E-001	-9.7947323E-001	-9.7951567E-001	-5.677564701796423E-002	5.5612636E-005
2	1	0	1	3.059999922697898E-001	-9.7446513E-001	-9.7448486E-001	-5.723573436545593E-002	5.5775356E-005
2	1	0	1	3.559999910066836E-001	-9.6946311E-001	-9.6948767E-001	-5.760468514739378E-002	5.5847031E-005
2	1	0	0	4.060999897410511E-001	-9.6445435E-001	-9.6447986E-001	-5.793867399615471E-002	5.5880686E-005
2	1	0	0	4.561999884754187E-001	-9.5944411E-001	-9.5944691E-001	-5.818772230202801E-002	5.5828030E-005
2	1	0	0	5.061999872123124E-001	-9.5444167E-001	-9.5445752E-001	-5.805950438550389E-002	5.5415330E-005
2	1	0	1	5.562999859466800E-001	-9.4943595E-001	-9.4947380E-001	-5.810092463957284E-002	5.5165307E-005
2	1	0	1	6.063999846810475E-001	-9.4442326E-001	-9.4447547E-001	-5.797799533533532E-002	5.4758795E-005
2	1	0	1	6.563999834179413E-001	-9.3942344E-001	-9.3946117E-001	-5.743391247327212E-002	5.3956930E-005
2	1	0	1	7.063999821548350E-001	-9.3442500E-001	-9.3445760E-001	-5.678822684637019E-002	5.3066189E-005
2	1	0	0	7.565999808866763E-001	-9.2940253E-001	-9.2944807E-001	-5.636561059552347E-002	5.2388907E-005
2	1	0	0	8.065999796235701E-001	-9.2440414E-001	-9.2444736E-001	-5.547652336766284E-002	5.1285126E-005
2	1	0	0	8.565999783604639E-001	-9.1940427E-001	-9.1943514E-001	-5.480954523231196E-002	5.0393821E-005
2	1	0	1	9.066999770948314E-001	-9.1439182E-001	-9.1444099E-001	-5.394481669643703E-002	4.9329352E-005
2	1	0	1	9.567999758291990E-001	-9.0938574E-001	-9.0942794E-001	-5.297325005715225E-002	4.8175352E-005
2	1	0	1	1.006799974566093E+000	-9.0438330E-001	-9.0442634E-001	-5.182961547913900E-002	4.6876070E-005
2	1	0	0	1.056899973300460E+000	-8.9937329E-001	-8.9942300E-001	-5.117717605481475E-002	4.6029931E-005
2	1	0	0	1.106999972034828E+000	-8.9436448E-001	-8.9440435E-001	-4.998892370057961E-002	4.4710312E-005
2	1	0	0	1.156999970771722E+000	-8.8936234E-001	-8.8938922E-001	-4.862686911849640E-002	4.3248212E-005
2	1	0	1	1.207099969506089E+000	-8.8435465E-001	-8.8439208E-001	-4.757458523712932E-002	4.2074586E-005
2	1	0	1	1.257199968240457E+000	-8.7934387E-001	-8.7937444E-001	-4.673649815733927E-002	4.1098883E-005
2	1	0	1	1.307199966977350E+000	-8.7434238E-001	-8.7439036E-001	-4.540194514997165E-002	3.9699022E-005
2	1	0	1	1.357199965714244E+000	-8.6934537E-001	-8.6939895E-001	-4.430395401536164E-002	3.8517810E-005
2	1	0	0	1.407399964446086E+000	-8.6432290E-001	-8.6437720E-001	-4.307764543241299E-002	3.7235335E-005
2	1	0	0	1.457399963182979E+000	-8.5932308E-001	-8.5937935E-001	-4.188167891602035E-002	3.5992249E-005
2	1	0	0	1.507399961919873E+000	-8.5432488E-001	-8.5438383E-001	-4.080207870878572E-002	3.4860637E-005
2	1	0	1	1.557599960651714E+000	-8.4930193E-001	-8.4937108E-001	-3.984783337209641E-002	3.3845597E-005
2	1	0	1	1.607599959388608E+000	-8.4430480E-001	-8.4434825E-001	-3.881640733980169E-002	3.2774566E-005
2	1	0	1	1.657599958125502E+000	-8.3930373E-001	-8.3935595E-001	-3.747285041860893E-002	3.1453059E-005
2	1	0	0	1.707699956859869E+000	-8.3429205E-001	-8.3436543E-001	-3.622049574175468E-002	3.0221130E-005
2	1	0	0	1.757799955594237E+000	-8.2928479E-001	-8.2934904E-001	-3.537977171813533E-002	2.9342180E-005
2	1	0	0	1.807799954331131E+000	-8.2428300E-001	-8.2434899E-001	-3.453307632566552E-002	2.8467306E-005
2	1	0	1	1.857899953065498E+000	-8.1927323E-001	-8.1932944E-001	-3.348712253161912E-002	2.7436985E-005
2	1	0	1	1.907999951799866E+000	-8.1426448E-001	-8.1432205E-001	-3.247709254535769E-002	2.6446813E-005
2	1	0	1	1.957999950536760E+000	-8.0926222E-001	-8.0932218E-001	-3.172436448706584E-002	2.5675232E-005
2	1	0	0	2.008099949271127E+000	-8.0425471E-001	-8.0429018E-001	-3.073736758962808E-002	2.4721763E-005
2	1	0	0	2.058199948005495E+000	-7.9924345E-001	-7.9928499E-001	-2.996014054797365E-002	2.3946690E-005
2	1	0	0	2.108199946742388E+000	-7.9424208E-001	-7.9428935E-001	-2.922779683060630E-002	2.3215327E-005
2	1	0	0	2.158199945479282E+000	-7.8924501E-001	-7.8929722E-001	-2.821640486012371E-002	2.2271130E-005
2	1	0	1	2.208399944211124E+000	-7.8422248E-001	-7.8428119E-001	-2.741079004046787E-002	2.1497766E-005
2	1	0	1	2.258399942948017E+000	-7.7922368E-001	-7.7926695E-001	-2.690961885983445E-002	2.0969777E-005
2	1	0	1	2.308399941684911E+000	-7.7422422E-001	-7.7427804E-001	-2.582288049831694E-002	1.9994090E-005
2	1	0	0	2.358599940416752E+000	-7.6920170E-001	-7.6924706E-001	-2.503485379315570E-002	1.9257988E-005
2	1	0	0	2.408599939153646E+000	-7.6420462E-001	-7.6423901E-001	-2.423105686535831E-002	1.8518320E-005
2	1	0	0	2.458599937890540E+000	-7.5920343E-001	-7.5924510E-001	-2.364021615163436E-002	1.7948718E-005
2	1	0	1	2.508699936624907E+000	-7.5419205E-001	-7.5421602E-001	-2.292584037385920E-002	1.7291037E-005
2	1	0	1	2.558799935359275E+000	-7.4918509E-001	-7.4921083E-001	-2.268861997181741E-002	1.6998560E-005
2	1	0	1	2.608799934096169E+000	-7.4418253E-001	-7.4420249E-001	-2.198900755032651E-002	1.6364274E-005
2	1	0	0	2.658899932830536E+000	-7.3917359E-001	-7.3919463E-001	-2.143156638667787E-002	1.5842099E-005
2	1	0	0	2.708999931564904E+000	-7.3416376E-001	-7.3418528E-001	-2.064011319808068E-002	1.5153667E-005
2	1	0	0	2.758999930301798E+000	-7.2916180E-001	-7.2918922E-001	-1.989592014866767E-002	1.4507890E-005
2	1	0	1	2.809099929036165E+000	-7.2415465E-001	-7.2417802E-001	-1.948174699820926E-002	1.4108253E-005
2	1	0	1	2.859199927770533E+000	-7.1914309E-001	-7.1916103E-001	-1.902990262604809E-002	1.3685564E-005
2	1	0	1	2.909199926507426E+000	-7.1414250E-001	-7.1418476E-001	-1.839798559675715E-002	1.3139561E-005
2	1	0	1	2.959199925244320E+000	-7.0914459E-001	-7.0917720E-001	-1.797305438726282E-002	1.2746081E-005
2	1	0	0	3.009399923976162E+000	-7.0412219E-001	-7.0415908E-001	-1.746627557379993E-002	1.2299037E-005
2	1	0	0	3.059399922713055E+000	-6.9912356E-001	-6.9915468E-001	-1.683782580026179E-002	1.1772245E-005
2	1	0	0	3.109399921449949E+000	-6.9412351E-001	-6.9415569E-001	-1.651332904635933E-002	1.1462821E-005
2	1	0	1	3.159599920181790E+000	-6.8910110E-001	-6.8913180E-001	-1.619516330063005E-002	1.1160602E-005
2	1	0	1	3.209599918918684E+000	-6.8410498E-001	-6.8412459E-001	-1.579470891455662E-002	1.0805548E-005
2	1	0	1	3.259599917655578E+000	-6.7910290E-001	-6.7914832E-001	-1.520524491037534E-002	1.0326617E-005
2	1	0	0	3.309699916389945E+000	-6.7409253E-001	-6.7413944E-001	-1.477809773313454E-002	9.9624986E-006
2	1	0	0	3.359799915124313E+000	-6.6908419E-001	-6.6912603E-001	-1.439789917559930E-002	9.6340091E-006
2	1	0	0	3.409799913861207E+000	-6.6408187E-001	-6.6410285E-001	-1.391507564478855E-002	9.2410419E-006
2	1	0	1	3.459899912595574E+000	-6.5907335E-001	-6.5910345E-001	-1.325377309769513E-002	8.7356075E-006
2	1	0	1	3.509999911329942E+000	-6.5406352E-001	-6.5412182E-001	-1.323602398150608E-002	8.6579721E-006
2	1	0	1	3.559999910066836E+000	-6.4906120E-001	-6.4910221E-001	-1.302247346488261E-002	8.4529165E-006
2	1	0	0	3.610099908801203E+000	-6.4405495E-001	-6.4410073E-001	-1.252983271668029E-002	8.0704740E-006
2	1	0	0	3.660199907535571E+000	-6.3904268E-001	-6.3909203E-001	-1.211433839270894E-002	7.7421773E-006
2	1	0	0	3.710199906272464E+000	-6.3404244E-001	-6.3410866E-001	-1.180356718089969E-002	7.4847444E-006
2	1	0	0	3.760199905009358E+000	-6.2904376E-001	-6.2911850E-001	-1.127686130545641E-002	7.0944820E-006
2	1	0	1	3.810399903741200E+000	-6.2402147E-001	-6.2408459E-001	-1.120086204650009E-002	6.9902853E-006
2	1	0	1	3.860399902478093E+000	-6.1902386E-001	-6.1908525E-001	-1.075087337437813E-002	6.6557072E-006
2	1	0	1	3.910399901214987E+000	-6.1402321E-001	-6.1409301E-001	-1.024410618224295E-002	6.2908339E-006
2	1	0	0	3.960499899949355E+000	-6.0901147E-001	-6.0907269E-001	-9.909311707999496E-003	6.0354910E-006
2	1	0	0	4.010599898683722E+000	-6.0400480E-001	-6.0407174E-001	-9.590718123686032E-003	5.7934817E-006
2	1	0	0	4.060599897420616E+000	-5.9900218E-001	-5.9906596E-001	-9.284635743736558E-003	5.5621094E-006
2	1	0	1	4.110699896154983E+000	-5.9399223E-001	-5.9404194E-001	-9.098387288749225E-003	5.4048237E-006
2	1	0	1	4.160799894889351E+000	-5.8898419E-001	-5.8904999E-001	-8.791285623188368E-003	5.1785069E-006
2	1	0	1	4.210799893626245E+000	-5.8398151E-001	-5.8404267E-001	-8.626558639581394E-003	5.0382782E-006
2	1	0	0	4.260899892360612E+000	-5.7897395E-001	-5.7902277E-001	-8.549440707229360E-003	4.9503210E-006
2	1	0	0	4.310999891094980E+000	-5.7396317E-001	-5.7403088E-001	-8.352512494162127E-003	4.7946000E-006
2	1	0	0	4.360999889831874E+000	-5.6896132E-001	-5.6902212E-001	-8.119100469958507E-003	4.6199480E-006
2	1	0	0	4.410999888568767E+000	-5.6396431E-001	-5.6402314E-001	-7.869239953961032E-003	4.4384333E-006
2	1	0	1	4.461199887300609E+000	-5.5894214E-001	-5.5902141E-001	-7.604305374230624E-003	4.2509696E-006
2	1	0	1	4.511199886037502E+000	-5.5394256E-001	-5.5401587E-001	-7.364677088428695E-003	4.0801478E-006
2	1	0	1	4.561199884774396E+000	-5.4894394E-001	-5.4901087E-001	-7.137300378759516E-003	3.9184556E-006
2	1	0	0	4.611399883506238E+000	-5.4392171E-001	-5.4398108E-001	-6.997824686445098E-003	3.8066842E-006
2	1	0	0	4.661399882243131E+000	-5.3892392E-001	-5.3898901E-001	-6.801289411959933E-003	3.6658203E-006
2	1	0	0	4.711399880980025E+000	-5.3392267E-001	-5.3399324E-001	-6.613735347177990E-003	3.5316900E-006
2	1	0	1	4.761499879714393E+000	-5.2891129E-001	-5.2897435E-001	-6.433264719500321E-003	3.4030320E-006
2	1	0	1	4.811599878448760E+000	-5.2390456E-001	-5.2397805E-001	-6.216854330072860E-003	3.2574953E-006
2	1	0	1	4.861599877185654E+000	-5.1890206E-001	-5.1896375E-001	-6.023272593448051E-003	3.1258601E-006
2	1	0	0	4.911699875920021E+000	-5.1389301E-001	-5.1396489E-001	-5.766977298359649E-003	2.9640239E-006
2	1	0	0	4.961799874654389E+000	-5.0888366E-001	-5.0894761E-001	-5.586787301065349E-003	2.8433822E-006
2	1	0	0	5.011799873391283E+000	-5.0388110E-001	-5.0394505E-001	-5.398200802921162E-003	2.7203967E-006
2	1	0	1	5.061899872125650E+000	-4.9887377E-001	-4.9893236E-001	-5.289795117943280E-003	2.6392499E-006
2	1	0	1	5.111999870860018E+000	-4.9386290E-001	-4.9393305E-001	-5.061324985730017E-003	2.4999556E-006
2	1	0	1	5.161999869596912E+000	-4.8886135E-001	-4.8890874E-001	-5.114775093459364E-003	2.5006582E-006
2	1	0	1	5.211999868333805E+000	-4.8386440E-001	-4.8390919E-001	-4.864577803554995E-003	2.3540140E-006
2	1	0	0	5.262199867065647E+000	-4.7884208E-001	-4.7888899E-001	-4.621529440130133E-003	2.2131997E-006
2	1	0	0	5.327199865423609E+000	-4.7234309E-001	-4.7240031E-001	-4.429832251691135E-003	2.0926541E-006
2	1	0	1	5.392299863779044E+000	-4.6583271E-001	-4.6586648E-001	-4.232275873328098E-003	1.9716754E-006
2	1	0	1	5.442399862513412E+000	-4.6082360E-001	-4.6084735E-001	-4.110542527200715E-003	1.8943326E-006
2	1	0	1	5.492399861250306E+000	-4.5582080E-001	-4.5586336E-001	-4.041464018629707E-003	1.8423553E-006
2	1	0	0	5.542499859984673E+000	-4.5081443E-001	-4.5083743E-001	-3.951833158519689E-003	1.7816343E-006
2	1	0	0	5.592599858719041E+000	-4.4580272E-001	-4.4581991E-001	-3.939540210372031E-003	1.7563254E-006
2	1	0	0	5.642599857455934E+000	-4.4080153E-001	-4.4081193E-001	-3.767347527555635E-003	1.6606917E-006
2	1	0	0	5.692599856192828E+000	-4.3580383E-001	-4.3583333E-001	-3.614807528424200E-003	1.5754537E-006
2	1	0	1	5.742799854924669E+000	-4.3078178E-001	-4.3080816E-001	-3.341947862433345E-003	1.4397384E-006
2	1	0	1	5.792799853661563E+000	-4.2578271E-001	-4.2580226E-001	-3.250264298334676E-003	1.3839699E-006
2	1	0	1	5.842799852398457E+000	-4.2078331E-001	-4.2081037E-001	-3.173827751712280E-003	1.3355797E-006
2	1	0	0	5.892999851130298E+000	-4.1576087E-001	-4.1579503E-001	-3.096207859430780E-003	1.2873878E-006
2	1	0	0	5.942999849867192E+000	-4.1076416E-001	-4.1077793E-001	-2.999224773466792E-003	1.2320153E-006
2	1	0	0	5.992999848604086E+000	-4.0576223E-001	-4.0577030E-001	-2.893501675134464E-003	1.1740971E-006
2	1	0	1	6.043099847338453E+000	-4.0075168E-001	-4.0080196E-001	-2.881361766612765E-003	1.1548555E-006
2	1	0	1	6.093199846072821E+000	-3.9574379E-001	-3.9577606E-001	-2.758303139577457E-003	1.0916704E-006
2	1	0	1	6.143199844809715E+000	-3.9074141E-001	-3.9077479E-001	-2.535534305952825E-003	9.9082285E-007
2	1	0	0	6.193299843544082E+000	-3.8573319E-001	-3.8576287E-001	-2.435915661452364E-003	9.3968583E-007
2	1	0	0	6.243399842278450E+000	-3.8072294E-001	-3.8074809E-001	-2.379356180039289E-003	9.0593534E-007
2	1	0	0	6.293399841015344E+000	-3.7572077E-001	-3.7575924E-001	-2.219609458767927E-003	8.3403876E-007
2	1	0	1	6.343499839749711E+000	-3.7071419E-001	-3.7073761E-001	-2.163034820619886E-003	8.0191836E-007
2	1	0	1	6.393599838484079E+000	-3.6570224E-001	-3.6574581E-001	-2.136080326575598E-003	7.8126243E-007
2	1	0	1	6.443599837220972E+000	-3.6070159E-001	-3.6073941E-001	-2.056590769032174E-003	7.4189336E-007
2	1	0	1	6.493599835957866E+000	-3.5570386E-001	-3.5574403E-001	-1.952572644564065E-003	6.9461606E-007
2	1	0	0	6.543799834689708E+000	-3.5068133E-001	-3.5070261E-001	-1.919818541090693E-003	6.7328540E-007
2	1	0	0	6.593799833426601E+000	-3.4568298E-001	-3.4570408E-001	-1.871616268639138E-003	6.4702539E-007
2	1	0	0	6.643799832163495E+000	-3.4068272E-001	-3.4070364E-001	-1.805207967860975E-003	6.1504090E-007
2	1	0	1	6.693899830897863E+000	-3.3567062E-001	-3.3569357E-001	-1.698128301030529E-003	5.7005076E-007
2	1	0	1	6.743999829632230E+000	-3.3066416E-001	-3.3067143E-001	-1.584146684735735E-003	5.2383206E-007
2	1	0	1	6.793999828369124E+000	-3.2566193E-001	-3.2569176E-001	-1.465883513397357E-003	4.7742617E-007
2	1	0	0	6.844099827103491E+000	-3.2065192E-001	-3.2070267E-001	-1.450380404474020E-003	4.6514086E-007
2	1	0	0	6.894199825837859E+000	-3.1564322E-001	-3.1567651E-001	-1.392287319811657E-003	4.3951241E-007
2	1	0	0	6.944199824574753E+000	-3.1064099E-001	-3.1068194E-001	-1.302475903311182E-003	4.0465574E-007
2	1	0	1	6.994299823309120E+000	-3.0563313E-001	-3.0566889E-001	-1.268292359046068E-003	3.8767752E-007
2	1	0	1	7.044399822043488E+000	-3.0062249E-001	-3.0065680E-001	-1.175925825420489E-003	3.5355009E-007
2	1	0	1	7.094399820780382E+000	-2.9562041E-001	-2.9565489E-001	-1.142215694980936E-003	3.3770166E-007
2	1	0	1	7.144399819517275E+000	-2.9062420E-001	-2.9065466E-001	-1.162483097808389E-003	3.3788112E-007
2	1	0	0	7.194599818249117E+000	-2.8560165E-001	-2.8563926E-001	-1.147510466718082E-003	3.2777405E-007
2	1	0	0	7.244599816986010E+000	-2.8060198E-001	-2.8062922E-001	-1.186165726170778E-003	3.3287276E-007
2	1	0	0	7.294599815722904E+000	-2.7560332E-001	-2.7562192E-001	-1.099785305277073E-003	3.0312495E-007
2	1	0	1	7.344799814454746E+000	-2.7058104E-001	-2.7059725E-001	-1.056612131704098E-003	2.8591634E-007
2	1	0	1	7.394799813191639E+000	-2.6558304E-001	-2.6560229E-001	-9.881699027253100E-004	2.6246019E-007
2	1	0	1	7.444799811928533E+000	-2.6058257E-001	-2.6061910E-001	-9.576612847504926E-004	2.4958482E-007
2	1	0	0	7.494899810662901E+000	-2.5557077E-001	-2.5559935E-001	-8.857322897975490E-004	2.2639260E-007
2	1	0	0	7.544999809397268E+000	-2.5056386E-001	-2.5058097E-001	-9.007435515968332E-004	2.2570919E-007
2	1	0	0	7.594999808134162E+000	-2.4556150E-001	-2.4560885E-001	-7.732042825199376E-004	1.8990582E-007
2	1	0	1	7.645099806868529E+000	-2.4055216E-001	-2.4060433E-001	-7.173524770306867E-004	1.7259811E-007
2	1	0	1	7.695199805602897E+000	-2.3554309E-001	-2.3559277E-001	-6.741589244910707E-004	1.5882696E-007
2	1	0	1	7.745199804339791E+000	-2.3054074E-001	-2.3059119E-001	-6.743106590520599E-004	1.5549010E-007
2	1	0	0	7.795299803074158E+000	-2.2553341E-001	-2.2559659E-001	-5.724209522510282E-004	1.2913621E-007
2	1	0	0	7.845399801808526E+000	-2.2052212E-001	-2.2057265E-001	-5.344674494910809E-004	1.1788890E-007
2	1	0	0	7.895399800545420E+000	-2.1552096E-001	-2.1557315E-001	-5.268762475977549E-004	1.1358037E-007
2	1	0	0	7.945399799282313E+000	-2.1052375E-001	-2.1057354E-001	-4.899246289062063E-004	1.0316516E-007
2	1	0	1	7.995599798014155E+000	-2.0550132E-001	-2.0556647E-001	-4.680655997651145E-004	9.6218592E-008
2	1	0	1	8.045599796751048E+000	-2.0050195E-001	-2.0053782E-001	-4.267960945341601E-004	8.5588759E-008
2	1	0	1	8.095599795487942E+000	-1.9550297E-001	-1.9555514E-001	-3.889173388293225E-004	7.6054782E-008
2	1	0	0	8.145799794219784E+000	-1.9048049E-001	-1.9053173E-001	-3.898163352264884E-004	7.4272378E-008
2	1	0	0	8.195799792956677E+000	-1.8548346E-001	-1.8553123E-001	-3.670326242135370E-004	6.8096014E-008
2	1	0	0	8.245799791693571E+000	-1.8048203E-001	-1.8052335E-001	-3.853506316475431E-004	6.9564784E-008
2	1	0	1	8.295899790427939E+000	-1.7547080E-001	-1.7551018E-001	-3.243263163104828E-004	5.6922570E-008
2	1	0	1	8.345999789162306E+000	-1.7046335E-001	-1.7050807E-001	-2.686352838485988E-004	4.5804484E-008
2	1	0	1	8.395999787899200E+000	-1.6546123E-001	-1.6550443E-001	-2.214500289511192E-004	3.6650960E-008
2	1	0	0	8.446099786633567E+000	-1.6045216E-001	-1.6049689E-001	-2.110409327595506E-004	3.3871412E-008
2	1	0	0	8.496199785367935E+000	-1.5544266E-001	-1.5546578E-001	-2.066506630524290E-004	3.2127108E-008
2	1	0	0	8.546199784104829E+000	-1.5044034E-001	-1.5047939E-001	-1.314543178038878E-004	1.9781165E-008
2	1	0	1	8.596299782839196E+000	-1.4543350E-001	-1.4546813E-001	-8.132757278257394E-005	1.1830570E-008
2	1	0	1	8.646399781573564E+000	-1.4042175E-001	-1.4044023E-001	-6.487057431154881E-005	9.1104377E-009
2	1	0	1	8.696399780310458E+000	-1.3542098E-001	-1.3543059E-001	-1.329925621375572E-004	1.8011262E-008
2	1	0	1	8.746399779047351E+000	-1.3042350E-001	-1.3044012E-001	-1.214776221641323E-004	1.5845556E-008
2	1	0	0	8.796599777779193E+000	-1.2540098E-001	-1.2540665E-001	-6.204734284826645E-007	7.7811493E-011
2	1	0	0	8.846599776516086E+000	-1.2040234E-001	-1.2040927E-001	1.124090808294610E-005	1.3535095E-009
2	1	0	0	8.896599775252980E+000	-1.1540260E-001	-1.1540563E-001	2.702067197340378E-005	3.1183378E-009
2	1	0	1	8.946799773984822E+000	-1.1038000E-001	-1.1039570E-001	5.266541277762038E-005	5.8140350E-009
2	1	0	1	8.996799772721715E+000	-1.0538353E-001	-1.0539495E-001	9.162427261096299E-005	9.6567359E-009
2	1	0	1	9.046799771458609E+000	-1.0038175E-001	-1.0037923E-001	1.216548815503372E-004	1.2211623E-008
2	1	0	0	9.096899770192977E+000	-9.5371015E-002	-9.5373876E-002	1.206990337890916E-004	1.1511535E-008
2	1	0	0	9.146999768927344E+000	-9.0363219E-002	-9.0380609E-002	1.458357863465809E-004	1.3180728E-008
2	1	0	0	9.196999767664238E+000	-8.5360803E-002	-8.5391499E-002	1.502944929033526E-004	1.2833872E-008
2	1	0	1	9.247099766398605E+000	-8.0352269E-002	-8.0371477E-002	1.418726495179847E-004	1.1402514E-008
2	1	0	1	9.297199765132973E+000	-7.5342260E-002	-7.5363822E-002	1.693621101132182E-004	1.2763776E-008
2	1	0	1	9.347199763869867E+000	-7.0339829E-002	-7.0352294E-002	1.756444865845938E-004	1.2356993E-008
2	1	0	0	9.397299762604234E+000	-6.5333568E-002	-6.5344647E-002	1.890353078049679E-004	1.2352445E-008
2	1	0	0	9.447399761338602E+000	-6.0321517E-002	-6.0327772E-002	2.477047590469976E-004	1.4943476E-008
2	1	0	0	9.497399760075496E+000	-5.5321116E-002	-5.5336244E-002	2.547274337533573E-004	1.4095660E-008
2	1	0	0	9.547399758812389E+000	-5.0322942E-002	-5.0325997E-002	2.773658699664599E-004	1.3958714E-008
2	1	0	1	9.597599757544231E+000	-4.5300569E-002	-4.5312397E-002	2.897105343346207E-004	1.3127479E-008
2	1	0	1	9.647599756281124E+000	-4.0302407E-002	-4.0318247E-002	2.958452107256753E-004	1.1927960E-008
2	1	0	1	9.697599755018018E+000	-3.5302233E-002	-3.5322975E-002	3.090321695529679E-004	1.0915936E-008
2	1	0	0	9.747699753752386E+000	-3.0289926E-002	-3.0299647E-002	3.217526021191963E-004	9.7489901E-009
2	1	0	0	9.797799752486753E+000	-2.5283698E-002	-2.5302997E-002	3.429172957605912E-004	8.6768353E-009
2	1	0	0	9.847799751223647E+000	-2.0281291E-002	-2.0294232E-002	3.565929712184808E-004	7.2367805E-009
2	1	0	1	9.897899749958015E+000	-1.5271211E-002	-1.5292368E-002	3.732363558984937E-004	5.7076677E-009
2	1	0	1	9.947999748692382E+000	-1.0262750E-002	-1.0306010E-002	3.882525997832842E-004	4.0013353E-009
2	1	0	1	9.997999747429276E+000	-5.2603451E-003	-5.2895132E-003	3.984358220492455E-004	2.1075315E-009
2	1	0	0	1.004809974616364E+001	-2.5249080E-004	-2.8581984E-004	4.124673347271979E-004	1.1789135E-010
2	1	0	0	1.009819974489801E+001	4.7579720E-003	4.7300686E-003	4.254567431480590E-004	2.0124395E-009
2	1	0	0	1.014819974363490E+001	9.7599523E-003	9.7291432E-003	4.352053858894837E-004	4.2341757E-009
2	1	0	0	1.019819974237180E+001	1.4756480E-002	1.4721860E-002	4.461495385982396E-004	6.5681509E-009
2	1	0	1	1.024839974110364E+001	1.9778853E-002	1.9753283E-002	4.581511487436636E-004	9.0499892E-009
2	1	0	1	1.029839973984053E+001	2.4778610E-002	2.4744272E-002	4.777988620835176E-004	1.1822785E-008
2	1	0	1	1.034839973857743E+001	2.9777348E-002	2.9751543E-002	4.957190387509152E-004	1.4748406E-008
2	1	0	0	1.039859973730927E+001	3.4799505E-002	3.4768369E-002	4.968408650160407E-004	1.7274347E-008
2	1	0	0	1.044859973604616E+001	3.9797269E-002	3.9771263E-002	5.028556219972488E-004	1.9999202E-008
2	1	0	0	1.049859973478306E+001	4.4798046E-002	4.4773165E-002	5.295313753708305E-004	2.3708795E-008
2	1	0	1	1.054869973351742E+001	4.9809698E-002	4.9787201E-002	5.385562578250082E-004	2.6813209E-008
2	1	0	1	1.059879973225179E+001	5.4816533E-002	5.4789394E-002	5.532855156881620E-004	3.0314180E-008
2	1	0	1	1.064879973098869E+001	5.9818923E-002	5.9792805E-002	5.879958588250116E-004	3.5157921E-008
2	1	0	0	1.069889972972305E+001	6.4828344E-002	6.4817429E-002	6.425668275995427E-004	4.1649528E-008
2	1	0	0	1.074899972845742E+001	6.9837220E-002	6.9816805E-002	6.599854049251907E-004	4.6078071E-008
2	1	0	0	1.079899972719431E+001	7.4839763E-002	7.4814484E-002	6.426134141051670E-004	4.8076792E-008
2	1	0	1	1.084909972592868E+001	7.9846978E-002	7.9840355E-002	7.021968991870534E-004	5.6063648E-008
2	1	0	1	1.089919972466305E+001	8.4858067E-002	8.4857561E-002	6.690417304667795E-004	5.6773249E-008
2	1	0	1	1.094919972339994E+001	8.9859344E-002	8.9852378E-002	6.450161194606566E-004	5.7956232E-008
2	1	0	1	1.099919972213684E+001	9.4856553E-002	9.4848067E-002	6.836355530534036E-004	6.4841508E-008
2	1	0	0	1.103729972117435E+001	9.8670453E-002	9.8658785E-002	7.018468115540036E-004	6.9243356E-008
2	1	0	0	1.105059972083836E+001	9.9997252E-002	1.0005149E-001	6.999527686275542E-004	7.0031319E-008