EC-Lab ASCII FILE
Nb header lines : 55                          

I-V Characterization

Run on channel : 1 (SN 6514)
User : 
CE vs. WE compliance from -10 V to 10 V
Electrode connection : standard
Ewe ctrl range : min = -1.10 V, max = 0.20 V
Safety Limits :
	Do not start on E overload
Acquisition started on : 06/15/2016 17:42:17
Saved on :
	File : B125-G54-UN-G-D1GB-C3 BW 10mVs_C01.mpr
	Directory : E:\EC-Lab measurements\B125-G54-UN-G-D1GB\
	Host : 10.0.2.15
Device : VSP (SN 0295)
Address : USB
EC-Lab for windows v11.01 (software)
Internet server v11.00 (firmware)
Command interpretor v11.00 (firmware)
Electrode material : 
Initial state : 
Electrolyte : 
Comments : 
Electrode surface area : 0.001 cm²
Characteristic mass : 0.001 g
Equivalent Weight : 0.000 g/eq.
Density : 0.000 g/cm3
tR (h:m:s)          0:00:0.0000         
dER/dt (mV/h)       0.0                 
dER (mV)            0                   
dtR (s)             0.0000              
dE/dt               10.000              
dE/dt unit          mV/s                
Ei (V)              -1.000              
vs.                 Ref                 
EL (V)              0.100               
vs.                 Ref                 
record              <I>                 
dI                  0.000               
unit dI             µA                  
tI (s)              0.1000              
step percent        100                 
N                   100                 
E range min (V)     -1.100              
E range max (V)     0.200               
I Range             Auto                
I Range min         Unset               
I Range max         Unset               
I Range init        Unset               
Bandwidth           5                   

mode	ox/red	error	control changes	time/s	control/V	Ewe/V	<I>/mA	P/W
2	1	0	0	1.449999963369919E-001	-9.9911702E-001	-9.9931479E-001	-1.203389649391174E+000	1.2025650E-003
2	1	0	1	3.977999899507267E-001	-9.9659127E-001	-9.9671942E-001	-1.214997640021752E+000	1.2110118E-003
2	1	0	0	8.983999773045070E-001	-9.9158508E-001	-9.9172318E-001	-1.210583894761257E+000	1.2005641E-003
2	1	0	0	1.399199964653235E+000	-9.8657739E-001	-9.8672670E-001	-1.156680442587529E+000	1.1413274E-003
2	1	0	1	1.899799952007015E+000	-9.8157126E-001	-9.8170853E-001	-1.088864685461167E+000	1.0689477E-003
2	1	0	0	2.400399939360796E+000	-9.7656506E-001	-9.7671586E-001	-1.005800992005060E+000	9.8238175E-004
2	1	0	1	2.900999926714576E+000	-9.7155941E-001	-9.7170573E-001	-9.313125756480520E-001	9.0496178E-004
2	1	0	0	3.401599914068356E+000	-9.6655303E-001	-9.6669286E-001	-8.697303067813031E-001	8.4076211E-004
2	1	0	1	3.902299901419610E+000	-9.6154594E-001	-9.6166003E-001	-8.156067462729393E-001	7.8433641E-004
2	1	0	1	4.402999888770864E+000	-9.5653933E-001	-9.5665014E-001	-7.696305142150557E-001	7.3626713E-004
2	1	0	0	4.903599876124645E+000	-9.5153308E-001	-9.5168078E-001	-7.325330933536143E-001	6.9713767E-004
2	1	0	1	5.404199863478425E+000	-9.4652724E-001	-9.4667894E-001	-6.990970555524019E-001	6.6182046E-004
2	1	0	0	5.904799850832205E+000	-9.4152123E-001	-9.4167203E-001	-6.682655459722753E-001	6.2928698E-004
2	1	0	1	6.405399838185986E+000	-9.3651509E-001	-9.3666148E-001	-6.420987518097565E-001	6.0142914E-004
2	1	0	0	6.906099825537240E+000	-9.3150836E-001	-9.3165094E-001	-6.168120694371275E-001	5.7465356E-004
2	1	0	0	7.406799812888494E+000	-9.2650110E-001	-9.2666030E-001	-5.945754444906868E-001	5.5096945E-004
2	1	0	1	7.907399800242274E+000	-9.2149490E-001	-9.2162740E-001	-5.733622588945462E-001	5.2842638E-004
2	1	0	0	8.407999787596054E+000	-9.1648924E-001	-9.1663134E-001	-5.548789899097439E-001	5.0861947E-004
2	1	0	1	8.908599774949835E+000	-9.1148299E-001	-9.1162837E-001	-5.339628934173666E-001	4.8677571E-004
2	1	0	0	9.409199762303615E+000	-9.0647709E-001	-9.0662336E-001	-5.161225967495415E-001	4.6792880E-004
2	1	0	1	9.909899749654869E+000	-9.0147024E-001	-9.0160882E-001	-4.982979002818660E-001	4.4926978E-004
2	1	0	1	1.042809973656404E+001	-8.9628786E-001	-8.9641070E-001	-4.815844053060099E-001	4.3169741E-004
2	1	0	1	1.094619972347573E+001	-8.9110732E-001	-8.9119077E-001	-4.644727282322068E-001	4.1393380E-004
2	1	0	0	1.144679971082951E+001	-8.8610107E-001	-8.8616812E-001	-4.486040296191769E-001	3.9753859E-004
2	1	0	1	1.194749969818076E+001	-8.8109380E-001	-8.8115305E-001	-4.337292665946229E-001	3.8218187E-004
2	1	0	1	1.244819968553202E+001	-8.7608725E-001	-8.7617743E-001	-4.188038926427229E-001	3.6694651E-004
2	1	0	0	1.294879967288580E+001	-8.7108105E-001	-8.7117839E-001	-4.031940392955564E-001	3.5125393E-004
2	1	0	1	1.344939966023958E+001	-8.6607510E-001	-8.6619204E-001	-3.882340841788174E-001	3.3628527E-004
2	1	0	0	1.394999964759336E+001	-8.6106914E-001	-8.6117381E-001	-3.745353236091047E-001	3.2254000E-004
2	1	0	1	1.445059963494714E+001	-8.5606289E-001	-8.5616827E-001	-3.607114288213482E-001	3.0882968E-004
2	1	0	0	1.495129962229839E+001	-8.5105622E-001	-8.5116822E-001	-3.461859829567175E-001	2.9466252E-004
2	1	0	0	1.545199960964965E+001	-8.4604907E-001	-8.4614575E-001	-3.321815887998927E-001	2.8107403E-004
2	1	0	1	1.595259959700343E+001	-8.4104282E-001	-8.4113705E-001	-3.184538318342467E-001	2.6786330E-004
2	1	0	0	1.645319958435721E+001	-8.3603716E-001	-8.3613908E-001	-3.048233401679338E-001	2.5487470E-004
2	1	0	1	1.695379957171099E+001	-8.3103091E-001	-8.3115047E-001	-2.909798833283341E-001	2.4184807E-004
2	1	0	0	1.745439955906477E+001	-8.2602507E-001	-8.2612818E-001	-2.774723908762589E-001	2.2922776E-004
2	1	0	1	1.795509954641602E+001	-8.2101804E-001	-8.2111531E-001	-2.638719563129346E-001	2.1666930E-004
2	1	0	1	1.845579953376728E+001	-8.1601095E-001	-8.1610990E-001	-2.504003118732632E-001	2.0435418E-004
2	1	0	0	1.895639952112106E+001	-8.1100518E-001	-8.1110168E-001	-2.373469296827226E-001	1.9251250E-004
2	1	0	1	1.945699950847484E+001	-8.0599898E-001	-8.0609596E-001	-2.237696192731113E-001	1.8037978E-004
2	1	0	0	1.995759949582862E+001	-8.0099273E-001	-8.0108130E-001	-2.104091781038581E-001	1.6855486E-004
2	1	0	1	2.045819948318240E+001	-7.9598707E-001	-7.9607898E-001	-1.974760107079718E-001	1.5720651E-004
2	1	0	0	2.095889947053365E+001	-7.9097992E-001	-7.9106295E-001	-1.843794290613533E-001	1.4585574E-004
2	1	0	0	2.145959945788491E+001	-7.8597307E-001	-7.8606004E-001	-1.709284165200293E-001	1.3436000E-004
2	1	0	1	2.196019944523869E+001	-7.8096700E-001	-7.8104788E-001	-1.577650639903665E-001	1.2322207E-004
2	1	0	0	2.246079943259247E+001	-7.7596080E-001	-7.7604795E-001	-1.445838742734717E-001	1.1220402E-004
2	1	0	1	2.296139941994625E+001	-7.7095509E-001	-7.7103502E-001	-1.314460856755915E-001	1.0134953E-004
2	1	0	0	2.346199940730003E+001	-7.6594883E-001	-7.6602501E-001	-1.184193369583226E-001	9.0712172E-005
2	1	0	0	2.396279939464876E+001	-7.6094079E-001	-7.6102346E-001	-1.053792678943320E-001	8.0196092E-005
2	1	0	1	2.446339938200254E+001	-7.5593507E-001	-7.5601059E-001	-9.224956215287072E-002	6.9741647E-005
2	1	0	0	2.496399936935632E+001	-7.5092888E-001	-7.5100541E-001	-7.928085465838353E-002	5.9540351E-005
2	1	0	1	2.546459935671010E+001	-7.4592286E-001	-7.4599320E-001	-6.626893801321110E-002	4.9436178E-005
2	1	0	0	2.596519934406388E+001	-7.4091685E-001	-7.4099350E-001	-5.315336215787494E-002	3.9386297E-005
2	1	0	1	2.648339933097304E+001	-7.3573494E-001	-7.3579454E-001	-3.986280515321472E-002	2.9330835E-005
2	1	0	0	2.700159931788221E+001	-7.3055309E-001	-7.3061413E-001	-2.653291220884868E-002	1.9385321E-005
2	1	0	1	2.750219930523599E+001	-7.2554684E-001	-7.2561294E-001	-1.353128465125586E-002	9.8184755E-006
2	1	0	0	2.802029929214768E+001	-7.2036558E-001	-7.2040683E-001	-3.579210882456867E-004	2.5784880E-007
2	1	0	1	2.855609927861224E+001	-7.1500796E-001	-7.1506608E-001	1.325808948537267E-002	9.4804100E-006
2	1	0	1	2.907419926552393E+001	-7.0982683E-001	-7.0990574E-001	2.655723099199031E-002	1.8853130E-005
2	1	0	0	2.957479925287771E+001	-7.0482093E-001	-7.0489705E-001	3.921952765985443E-002	2.7645729E-005
2	1	0	1	3.007539924023149E+001	-6.9981474E-001	-6.9987857E-001	5.179309416574024E-002	3.6248875E-005
2	1	0	0	3.057609922758274E+001	-6.9480765E-001	-6.9486862E-001	6.441182101296961E-002	4.4757755E-005
2	1	0	0	3.107679921493400E+001	-6.8980092E-001	-6.8986070E-001	7.716377279248166E-002	5.3232256E-005
2	1	0	1	3.157739920228778E+001	-6.8479478E-001	-6.8485630E-001	8.957205550025849E-002	6.1343984E-005
2	1	0	0	3.209549918919947E+001	-6.7961365E-001	-6.7967933E-001	1.027145078406320E-001	6.9812930E-005
2	1	0	0	3.261369917610864E+001	-6.7443174E-001	-6.7451739E-001	1.155796703694392E-001	7.7960496E-005
2	1	0	0	3.311439916345989E+001	-6.6942477E-001	-6.6949040E-001	1.277379202655502E-001	8.5519314E-005
2	1	0	1	3.361499915081367E+001	-6.6441882E-001	-6.6448617E-001	1.398308139156665E-001	9.2915645E-005
2	1	0	0	3.411559913816745E+001	-6.5941268E-001	-6.5949041E-001	1.525096464982549E-001	1.0057865E-004
2	1	0	1	3.461619912552123E+001	-6.5440667E-001	-6.5448469E-001	1.646001430943658E-001	1.0772827E-004
2	1	0	0	3.511679911287501E+001	-6.4940083E-001	-6.4950490E-001	1.771500917576412E-001	1.1505985E-004
2	1	0	1	3.561749910022627E+001	-6.4439368E-001	-6.4447582E-001	1.896207865571293E-001	1.2220601E-004
2	1	0	1	3.611819908757752E+001	-6.3938665E-001	-6.3947779E-001	2.012401772159174E-001	1.2868863E-004
2	1	0	0	3.661879907493130E+001	-6.3438076E-001	-6.3449430E-001	2.135447735238012E-001	1.3549294E-004
2	1	0	1	3.711939906228508E+001	-6.2937468E-001	-6.2948549E-001	2.252087626518451E-001	1.4176565E-004
2	1	0	0	3.761999904963886E+001	-6.2436873E-001	-6.2448871E-001	2.371907484639739E-001	1.4812294E-004
2	1	0	1	3.812059903699264E+001	-6.1936253E-001	-6.1947560E-001	2.488229081353976E-001	1.5413972E-004
2	1	0	0	3.862129902434390E+001	-6.1435556E-001	-6.1446512E-001	2.603591346980421E-001	1.5998160E-004
2	1	0	0	3.912199901169515E+001	-6.0934883E-001	-6.0947579E-001	2.723831218754897E-001	1.6601091E-004
2	1	0	1	3.962259899904893E+001	-6.0434264E-001	-6.0444576E-001	2.843970995495808E-001	1.7190262E-004
2	1	0	0	4.012319898640271E+001	-5.9933645E-001	-5.9945339E-001	2.948961185156769E-001	1.7677648E-004
2	1	0	1	4.062379897375649E+001	-5.9433061E-001	-5.9444755E-001	3.056959506414613E-001	1.8172021E-004
2	1	0	0	4.112439896111027E+001	-5.8932459E-001	-5.8941525E-001	3.179291507779813E-001	1.8739229E-004
2	1	0	1	4.162509894846153E+001	-5.8431756E-001	-5.8442473E-001	3.286511520761684E-001	1.9207186E-004
2	1	0	1	4.212579893581278E+001	-5.7931048E-001	-5.7942522E-001	3.404071814427301E-001	1.9724050E-004
2	1	0	0	4.262639892316656E+001	-5.7430440E-001	-5.7441479E-001	3.517292054705736E-001	2.0203846E-004
2	1	0	1	4.312699891052034E+001	-5.6929857E-001	-5.6941819E-001	3.620719930548835E-001	2.0617039E-004
2	1	0	0	4.362759889787412E+001	-5.6429243E-001	-5.6439364E-001	3.733344495956201E-001	2.1070759E-004
2	1	0	1	4.412819888522790E+001	-5.5928630E-001	-5.5941308E-001	3.838093735405295E-001	2.1470798E-004
2	1	0	0	4.462889887257916E+001	-5.5427951E-001	-5.5439794E-001	3.950090258194781E-001	2.1899219E-004
2	1	0	0	4.512959885993041E+001	-5.4927254E-001	-5.4937547E-001	4.049452526352192E-001	2.2246699E-004
2	1	0	1	4.563019884728419E+001	-5.4426646E-001	-5.4436392E-001	4.143134682403193E-001	2.2553730E-004
2	1	0	0	4.613079883463797E+001	-5.3926033E-001	-5.3936994E-001	4.253206370978360E-001	2.2940517E-004
2	1	0	1	4.663139882199175E+001	-5.3425431E-001	-5.3436470E-001	4.363178085936901E-001	2.3315284E-004
2	1	0	0	4.713199880934553E+001	-5.2924842E-001	-5.2935433E-001	4.460722991324078E-001	2.3613030E-004
2	1	0	0	4.763279879669426E+001	-5.2424043E-001	-5.2433556E-001	4.557568819622864E-001	2.3896954E-004
2	1	0	1	4.813339878404804E+001	-5.1923430E-001	-5.1934117E-001	4.652887361382749E-001	2.4164360E-004
2	1	0	0	4.863399877140182E+001	-5.1422834E-001	-5.1432943E-001	4.751590034244471E-001	2.4438827E-004
2	1	0	1	4.913459875875560E+001	-5.0922239E-001	-5.0932109E-001	4.852728676856009E-001	2.4715971E-004
2	1	0	0	4.963519874610938E+001	-5.0421631E-001	-5.0432837E-001	4.951111692935339E-001	2.4969861E-004
2	1	0	1	5.013589873346064E+001	-4.9920917E-001	-4.9930966E-001	5.036366565532593E-001	2.5147066E-004
2	1	0	1	5.063659872081189E+001	-4.9420229E-001	-4.9431404E-001	5.121372217005131E-001	2.5315661E-004
2	1	0	0	5.113719870816567E+001	-4.8919630E-001	-4.8929214E-001	5.227386692208178E-001	2.5577191E-004
2	1	0	1	5.163779869551945E+001	-4.8419026E-001	-4.8428488E-001	5.313751564831959E-001	2.5733694E-004
2	1	0	0	5.213839868287323E+001	-4.7918412E-001	-4.7927377E-001	5.408114436435554E-001	2.5919673E-004
2	1	0	1	5.263899867022701E+001	-4.7417817E-001	-4.7425729E-001	5.500178224908900E-001	2.6084995E-004
2	1	0	0	5.313969865757826E+001	-4.6917123E-001	-4.6925372E-001	5.572232216725510E-001	2.6147906E-004
2	1	0	0	5.364039864492952E+001	-4.6416426E-001	-4.6425933E-001	5.652380101508045E-001	2.6241702E-004
2	1	0	1	5.414099863228330E+001	-4.5915818E-001	-4.5924962E-001	5.758213231164557E-001	2.6444573E-004
2	1	0	0	5.464159861963708E+001	-4.5415220E-001	-4.5423272E-001	5.846601666555848E-001	2.6557178E-004
2	1	0	1	5.514219860699086E+001	-4.4914624E-001	-4.4921592E-001	5.914222154033428E-001	2.6567627E-004
2	1	0	0	5.564279859434464E+001	-4.4414020E-001	-4.4420663E-001	6.019006612761437E-001	2.6736828E-004
2	1	0	1	5.614349858169589E+001	-4.3913317E-001	-4.3921232E-001	6.098120245378944E-001	2.6783696E-004
2	1	0	1	5.664419856904715E+001	-4.3412620E-001	-4.3420619E-001	6.166608203761736E-001	2.6775795E-004
2	1	0	0	5.714479855640093E+001	-4.2912027E-001	-4.2918950E-001	6.243359064505487E-001	2.6795841E-004
2	1	0	1	5.764539854375471E+001	-4.2411417E-001	-4.2420220E-001	6.329864547954003E-001	2.6851424E-004
2	1	0	0	5.814599853110849E+001	-4.1910812E-001	-4.1919124E-001	6.413112969616712E-001	2.6883208E-004
2	1	0	1	5.864659851846227E+001	-4.1410211E-001	-4.1419426E-001	6.479008099546979E-001	2.6835679E-004
2	1	0	1	5.914739850581100E+001	-4.0909421E-001	-4.0916583E-001	6.559002668715586E-001	2.6837198E-004
2	1	0	0	5.964799849316478E+001	-4.0408823E-001	-4.0417266E-001	6.639010957182112E-001	2.6833068E-004
2	1	0	1	6.014859848051856E+001	-3.9908209E-001	-3.9917272E-001	6.709528445514472E-001	2.6782608E-004
2	1	0	0	6.064919846787234E+001	-3.9407611E-001	-3.9417061E-001	6.793537354983101E-001	2.6778129E-004
2	1	0	1	6.114979845522612E+001	-3.8907018E-001	-3.8916063E-001	6.847239553314548E-001	2.6646760E-004
2	1	0	0	6.165039844257990E+001	-3.8406411E-001	-3.8414502E-001	6.908685533989969E-001	2.6539373E-004
2	1	0	0	6.215119842992863E+001	-3.7905613E-001	-3.7914032E-001	6.995963068475017E-001	2.6524518E-004
2	1	0	1	6.265179841728241E+001	-3.7405008E-001	-3.7414020E-001	7.064086089285526E-001	2.6429587E-004
2	1	0	0	6.315239840463619E+001	-3.6904415E-001	-3.6912739E-001	7.137400373629097E-001	2.6346100E-004
2	1	0	1	6.365299839198997E+001	-3.6403805E-001	-3.6412519E-001	7.200047149177369E-001	2.6217184E-004
2	1	0	0	6.415359837934375E+001	-3.5903203E-001	-3.5911044E-001	7.244800711089869E-001	2.6016837E-004
2	1	0	1	6.465429836669500E+001	-3.5402504E-001	-3.5410583E-001	7.294760034381298E-001	2.5831172E-004
2	1	0	1	6.515499835404626E+001	-3.4901813E-001	-3.4909788E-001	7.389404892018421E-001	2.5796256E-004
2	1	0	0	6.565559834140004E+001	-3.4401211E-001	-3.4407160E-001	7.457997701704722E-001	2.5660853E-004
2	1	0	1	6.615619832875382E+001	-3.3900604E-001	-3.3907616E-001	7.540910689156632E-001	2.5569429E-004
2	1	0	0	6.665679831610760E+001	-3.3400005E-001	-3.3406290E-001	7.589796488717173E-001	2.5354695E-004
2	1	0	1	6.715739830346138E+001	-3.2899401E-001	-3.2905692E-001	7.645907134141581E-001	2.5159385E-004
2	1	0	0	6.765809829081263E+001	-3.2398704E-001	-3.2407165E-001	7.693441194321515E-001	2.4932262E-004
2	1	0	0	6.815879827816389E+001	-3.1897998E-001	-3.1906432E-001	7.753897757906758E-001	2.4739921E-004
2	1	0	1	6.865939826551767E+001	-3.1397396E-001	-3.1404802E-001	7.822150896720395E-001	2.4565309E-004
2	1	0	0	6.915999825287145E+001	-3.0896801E-001	-3.0905250E-001	7.859093232165382E-001	2.4288724E-004
2	1	0	1	6.966059824022523E+001	-3.0396196E-001	-3.0405870E-001	7.916074943455675E-001	2.4069515E-004
2	1	0	0	7.016119822757901E+001	-2.9895592E-001	-2.9904571E-001	7.991793784673140E-001	2.3899117E-004
2	1	0	1	7.066189821493026E+001	-2.9394898E-001	-2.9402548E-001	8.024495370348630E-001	2.3594061E-004
2	1	0	1	7.116259820228152E+001	-2.8894195E-001	-2.8901514E-001	8.079464354125063E-001	2.3350875E-004
2	1	0	0	7.166319818963530E+001	-2.8393590E-001	-2.8403136E-001	8.136599341169592E-001	2.3110493E-004
2	1	0	1	7.216379817698908E+001	-2.7892986E-001	-2.7901733E-001	8.194202743773145E-001	2.2863246E-004
2	1	0	0	7.266439816434286E+001	-2.7392381E-001	-2.7400342E-001	8.252797650870627E-001	2.2612947E-004
2	1	0	1	7.316499815169664E+001	-2.6891783E-001	-2.6900727E-001	8.274777285947810E-001	2.2259752E-004
2	1	0	1	7.366579813904536E+001	-2.6390988E-001	-2.6400110E-001	8.320250679400516E-001	2.1965553E-004
2	1	0	0	7.416639812639914E+001	-2.5890386E-001	-2.5898576E-001	8.389564786111197E-001	2.1727777E-004
2	1	0	1	7.466699811375292E+001	-2.5389782E-001	-2.5398698E-001	8.423183474999005E-001	2.1393789E-004
2	1	0	0	7.516759810110671E+001	-2.4889180E-001	-2.4897328E-001	8.479085894663800E-001	2.1110658E-004
2	1	0	1	7.566819808846049E+001	-2.4388577E-001	-2.4398166E-001	8.499276800625513E-001	2.0736677E-004
2	1	0	0	7.616889807581174E+001	-2.3887876E-001	-2.3900837E-001	8.537472147804319E-001	2.0405273E-004
2	1	0	0	7.666959806316299E+001	-2.3387180E-001	-2.3397352E-001	8.580132725368396E-001	2.0075239E-004
2	1	0	1	7.717019805051677E+001	-2.2886580E-001	-2.2896880E-001	8.603637811551840E-001	1.9699647E-004
2	1	0	0	7.767079803787055E+001	-2.2385976E-001	-2.2396883E-001	8.655815539974743E-001	1.9386329E-004
2	1	0	1	7.817139802522433E+001	-2.1885379E-001	-2.1895336E-001	8.699845631598708E-001	1.9048604E-004
2	1	0	0	7.867199801257811E+001	-2.1384771E-001	-2.1396141E-001	8.716461137790983E-001	1.8649863E-004
2	1	0	1	7.917269799992937E+001	-2.0884079E-001	-2.0895100E-001	8.764710115941075E-001	1.8313949E-004
2	1	0	1	7.967339798728062E+001	-2.0383377E-001	-2.0394212E-001	8.774718640548106E-001	1.7895347E-004
2	1	0	0	8.017399797463440E+001	-1.9882777E-001	-1.9892205E-001	8.807323214410481E-001	1.7519708E-004
2	1	0	1	8.067459796198818E+001	-1.9382171E-001	-1.9393343E-001	8.853222703343597E-001	1.7169358E-004
2	1	0	0	8.117519794934196E+001	-1.8881571E-001	-1.8892320E-001	8.898566582270941E-001	1.6811457E-004
2	1	0	1	8.167579793669574E+001	-1.8380967E-001	-1.8391800E-001	8.931874788681444E-001	1.6427325E-004
2	1	0	0	8.217649792404700E+001	-1.7880271E-001	-1.7890680E-001	8.930259141579455E-001	1.5976840E-004
2	1	0	0	8.267719791139825E+001	-1.7379573E-001	-1.7390217E-001	8.945038431067713E-001	1.5555616E-004
2	1	0	1	8.317779789875203E+001	-1.6878968E-001	-1.6887240E-001	8.994603094878064E-001	1.5189403E-004
2	1	0	0	8.367839788610581E+001	-1.6378365E-001	-1.6387725E-001	9.020799189066366E-001	1.4783037E-004
2	1	0	1	8.417899787345959E+001	-1.5877767E-001	-1.5886258E-001	9.023558866631856E-001	1.4335058E-004
2	1	0	0	8.467959786081337E+001	-1.5377159E-001	-1.5384710E-001	9.055045491767100E-001	1.3930925E-004
2	1	0	1	8.518029784816463E+001	-1.4876468E-001	-1.4884941E-001	9.065370659150611E-001	1.3493751E-004
2	1	0	1	8.568099783551588E+001	-1.4375764E-001	-1.4383462E-001	9.076882459223894E-001	1.3055699E-004
2	1	0	0	8.618159782286966E+001	-1.3875163E-001	-1.3881648E-001	9.103900135392022E-001	1.2637713E-004
2	1	0	1	8.668219781022344E+001	-1.3374557E-001	-1.3381055E-001	9.141798546541207E-001	1.2232691E-004
2	1	0	0	8.718279779757722E+001	-1.2873955E-001	-1.2879726E-001	9.173478508617390E-001	1.1815189E-004
2	1	0	1	8.768339778493100E+001	-1.2373353E-001	-1.2379487E-001	9.172342141078520E-001	1.1354889E-004
2	1	0	1	8.818419777227973E+001	-1.1872557E-001	-1.1878127E-001	9.182195499695140E-001	1.0906728E-004
2	1	0	0	8.868479775963351E+001	-1.1371958E-001	-1.1378822E-001	9.214336187980452E-001	1.0484829E-004
2	1	0	1	8.918539774698729E+001	-1.0871354E-001	-1.0879251E-001	9.230595705090545E-001	1.0042197E-004
2	1	0	0	8.968599773434107E+001	-1.0370753E-001	-1.0376655E-001	9.224802013183044E-001	9.5722586E-005
2	1	0	1	9.018659772169485E+001	-9.8701492E-002	-9.8753303E-002	9.258397592024661E-001	9.1429734E-005
2	1	0	0	9.068729770904611E+001	-9.3694471E-002	-9.3761638E-002	9.255730493795173E-001	8.6783242E-005
2	1	0	0	9.118799769639736E+001	-8.8687554E-002	-8.8776954E-002	9.256248683833395E-001	8.2174156E-005
2	1	0	1	9.168859768375114E+001	-8.3681494E-002	-8.3755881E-002	9.302584524490529E-001	7.7914614E-005
2	1	0	0	9.218919767110492E+001	-7.8675486E-002	-7.8739844E-002	9.306681194179607E-001	7.3280666E-005
2	1	0	1	9.268979765845870E+001	-7.3669434E-002	-7.3746257E-002	9.300217395381392E-001	6.8585621E-005
2	1	0	0	9.319039764581248E+001	-6.8663433E-002	-6.8736427E-002	9.319838630236355E-001	6.4061242E-005
2	1	0	1	9.369109763316374E+001	-6.3656427E-002	-6.3723005E-002	9.345687099815114E-001	5.9553528E-005
2	1	0	1	9.419179762051499E+001	-5.8649462E-002	-5.8721326E-002	9.325776236751349E-001	5.4762197E-005
2	1	0	0	9.469239760786877E+001	-5.3643439E-002	-5.3718258E-002	9.356533611930047E-001	5.0261668E-005
2	1	0	1	9.519299759522255E+001	-4.8637409E-002	-4.8704527E-002	9.370229794811973E-001	4.5637262E-005
2	1	0	0	9.569359758257633E+001	-4.3631401E-002	-4.3721426E-002	9.352794128574562E-001	4.0891751E-005
2	1	0	1	9.619419756993011E+001	-3.8625367E-002	-3.8695287E-002	9.376720595354122E-001	3.6283491E-005
2	1	0	0	9.669489755728137E+001	-3.3618420E-002	-3.3703968E-002	9.373325956477405E-001	3.1591826E-005
2	1	0	0	9.719559754463262E+001	-2.8611397E-002	-2.8689591E-002	9.383414484719559E-001	2.6920632E-005
2	1	0	1	9.769619753198640E+001	-2.3605406E-002	-2.3673592E-002	9.408213226759834E-001	2.2272619E-005
2	1	0	0	9.819679751934018E+001	-1.8599354E-002	-1.8661611E-002	9.418069657566148E-001	1.7575636E-005
2	1	0	1	9.869739750669396E+001	-1.3593341E-002	-1.3682761E-002	9.403552351996010E-001	1.2866656E-005
2	1	0	0	9.919799749404774E+001	-8.5873082E-003	-8.6901356E-003	9.410647916660988E-001	8.1779808E-006
2	1	0	0	9.969879748139647E+001	-3.5793758E-003	-3.6834488E-003	9.436286860368526E-001	3.4758079E-006
2	1	0	1	1.001993974687502E+002	1.4266664E-003	1.3301161E-003	9.432749485008696E-001	1.2546651E-006
2	1	0	0	1.006999974561040E+002	6.4326432E-003	6.3277753E-003	9.448586426288621E-001	5.9788531E-006
2	1	0	1	1.012005974434578E+002	1.1438655E-002	1.1353890E-002	9.460802411433136E-001	1.0741692E-005
2	1	0	0	1.017011974308116E+002	1.6444668E-002	1.6350618E-002	9.456571742012105E-001	1.5462079E-005
2	1	0	1	1.022017974181654E+002	2.1450656E-002	2.1367503E-002	9.474820694499861E-001	2.0245327E-005
2	1	0	1	1.027025974055141E+002	2.6458569E-002	2.6381314E-002	9.478107532842746E-001	2.5004492E-005
2	1	0	0	1.032031973928679E+002	3.1464599E-002	3.1384043E-002	9.495567918154126E-001	2.9800931E-005
2	1	0	1	1.037037973802217E+002	3.6470562E-002	3.6388315E-002	9.482032052851859E-001	3.4503519E-005
2	1	0	0	1.042043973675754E+002	4.1476592E-002	4.1398954E-002	9.484492107472953E-001	3.9264803E-005
2	1	0	1	1.047049973549292E+002	4.6482589E-002	4.6393748E-002	9.472022612506414E-001	4.3944263E-005
2	1	0	0	1.052056973422805E+002	5.1489592E-002	5.1400386E-002	9.494255187221500E-001	4.8800837E-005
2	1	0	0	1.057063973296317E+002	5.6496542E-002	5.6410149E-002	9.492528120642785E-001	5.3547494E-005
2	1	0	1	1.062069973169855E+002	6.1502535E-002	6.1423026E-002	9.504778444088950E-001	5.8381225E-005
2	1	0	0	1.067075973043393E+002	6.6508532E-002	6.6432081E-002	9.523532029196122E-001	6.3266809E-005
2	1	0	1	1.072081972916931E+002	7.1514517E-002	7.1445562E-002	9.501057355936435E-001	6.7880836E-005
2	1	0	0	1.077087972790468E+002	7.6520517E-002	7.6448932E-002	9.497121045041665E-001	7.2604475E-005
2	1	0	1	1.082094972663981E+002	8.1527486E-002	8.1453323E-002	9.520940543108711E-001	7.7551224E-005
2	1	0	1	1.087101972537494E+002	8.6534448E-002	8.6454175E-002	9.541115163067229E-001	8.2486928E-005
2	1	0	0	1.092107972411031E+002	9.1540456E-002	9.1456763E-002	9.531669748754039E-001	8.7173568E-005
2	1	0	1	1.097564972273176E+002	9.6997499E-002	9.6913278E-002	4.562372601875895E-001	4.4215449E-005
2	1	0	1	1.100543972197920E+002	9.9976070E-002	9.9838831E-002	1.366843404248357E-003	1.3646405E-007