EC-Lab ASCII FILE
Nb header lines : 55                          

I-V Characterization

Run on channel : 1 (SN 6514)
User : 
CE vs. WE compliance from -10 V to 10 V
Electrode connection : standard
Ewe ctrl range : min = -1.10 V, max = 0.20 V
Safety Limits :
	Do not start on E overload
Acquisition started on : 06/15/2016 17:45:50
Saved on :
	File : B125-G54-UN-G-D1GB-C3 BW 100mVs dark_C01.mpr
	Directory : E:\EC-Lab measurements\B125-G54-UN-G-D1GB\
	Host : 10.0.2.15
Device : VSP (SN 0295)
Address : USB
EC-Lab for windows v11.01 (software)
Internet server v11.00 (firmware)
Command interpretor v11.00 (firmware)
Electrode material : 
Initial state : 
Electrolyte : 
Comments : 
Electrode surface area : 0.001 cm²
Characteristic mass : 0.001 g
Equivalent Weight : 0.000 g/eq.
Density : 0.000 g/cm3
tR (h:m:s)          0:00:0.0000         
dER/dt (mV/h)       0.0                 
dER (mV)            0                   
dtR (s)             0.0000              
dE/dt               100.000             
dE/dt unit          mV/s                
Ei (V)              -1.000              
vs.                 Ref                 
EL (V)              0.100               
vs.                 Ref                 
record              <I>                 
dI                  0.000               
unit dI             µA                  
tI (s)              0.1000              
step percent        100                 
N                   100                 
E range min (V)     -1.100              
E range max (V)     0.200               
I Range             Auto                
I Range min         Unset               
I Range max         Unset               
I Range init        Unset               
Bandwidth           5                   

mode	ox/red	error	control changes	time/s	control/V	Ewe/V	<I>/mA	P/W
2	1	0	1	8.039999796892516E-002	-9.9697864E-001	-9.9690998E-001	-1.002637930214405E-001	9.9953977E-005
2	1	0	0	1.207999969483353E-001	-9.9294138E-001	-9.9297124E-001	-1.028563174991611E-001	1.0213337E-004
2	1	0	0	1.857999953062972E-001	-9.8644280E-001	-9.8650920E-001	-1.062073001701944E-001	1.0477448E-004
2	1	0	1	2.358999940406648E-001	-9.8143673E-001	-9.8150027E-001	-1.080180740857568E-001	1.0601977E-004
2	1	0	1	2.859999927750323E-001	-9.7642463E-001	-9.7648662E-001	-1.093246972387680E-001	1.0675410E-004
2	1	0	1	3.359999915119261E-001	-9.7142375E-001	-9.7147322E-001	-1.100165159588594E-001	1.0687810E-004
2	1	0	1	3.859999902488198E-001	-9.6642601E-001	-9.6647948E-001	-1.105592428916715E-001	1.0685324E-004
2	1	0	0	4.361999889806611E-001	-9.6140385E-001	-9.6143413E-001	-1.109080736342896E-001	1.0663080E-004
2	1	0	0	4.861999877175549E-001	-9.5640451E-001	-9.5644057E-001	-1.109815650165065E-001	1.0614727E-004
2	1	0	0	5.361999864544487E-001	-9.5140558E-001	-9.5145428E-001	-1.107304061899335E-001	1.0535492E-004
2	1	0	1	5.863999851862900E-001	-9.4638306E-001	-9.4644690E-001	-1.099750458464523E-001	1.0408554E-004
2	1	0	1	6.363999839231838E-001	-9.4138616E-001	-9.4144809E-001	-1.093422508599322E-001	1.0294005E-004
2	1	0	1	6.863999826600775E-001	-9.3638468E-001	-9.3644702E-001	-1.086206515489403E-001	1.0171749E-004
2	1	0	0	7.364999813944451E-001	-9.3137342E-001	-9.3144947E-001	-1.077415568565686E-001	1.0035581E-004
2	1	0	0	7.865999801288126E-001	-9.2636603E-001	-9.2643464E-001	-1.067499235779441E-001	9.8896824E-005
2	1	0	0	8.365999788657064E-001	-9.2136389E-001	-9.2141777E-001	-1.056595349656799E-001	9.7356577E-005
2	1	0	1	8.866999776000739E-001	-9.1635424E-001	-9.1641635E-001	-1.044740859435895E-001	9.5741758E-005
2	1	0	1	9.367999763344415E-001	-9.1134572E-001	-9.1140252E-001	-1.031445275327685E-001	9.4006180E-005
2	1	0	1	9.867999750713352E-001	-9.0634304E-001	-9.0640175E-001	-1.018013312801389E-001	9.2272909E-005
2	1	0	0	1.036899973805703E+000	-9.0133590E-001	-9.0140200E-001	-1.004124601101668E-001	9.0511989E-005
2	1	0	0	1.086999972540070E+000	-8.9632481E-001	-8.9638633E-001	-9.895278440382282E-002	8.8699926E-005
2	1	0	0	1.136999971276964E+000	-8.9132303E-001	-8.9138895E-001	-9.745747972168894E-002	8.6872518E-005
2	1	0	0	1.186999970013858E+000	-8.8632596E-001	-8.8638020E-001	-9.594017968879695E-002	8.5039472E-005
2	1	0	1	1.237199968745699E+000	-8.8130409E-001	-8.8136619E-001	-9.442936944180058E-002	8.3226856E-005
2	1	0	1	1.287199967482593E+000	-8.7630391E-001	-8.7635851E-001	-9.286457732706488E-002	8.1382663E-005
2	1	0	1	1.337199966219487E+000	-8.7130582E-001	-8.7138057E-001	-9.129420019356149E-002	7.9551995E-005
2	1	0	0	1.387399964951328E+000	-8.6628336E-001	-8.6637557E-001	-8.974125542128841E-002	7.7749632E-005
2	1	0	0	1.437399963688222E+000	-8.6128533E-001	-8.6136079E-001	-8.806679753216562E-002	7.5857286E-005
2	1	0	0	1.487399962425116E+000	-8.5628498E-001	-8.5635334E-001	-8.652077983119266E-002	7.4092357E-005
2	1	0	1	1.537499961159483E+000	-8.5127270E-001	-8.5135090E-001	-8.487154453472334E-002	7.2255469E-005
2	1	0	1	1.587599959893851E+000	-8.4626609E-001	-8.4634238E-001	-8.327404410953361E-002	7.0478352E-005
2	1	0	1	1.637599958630744E+000	-8.4126413E-001	-8.4132677E-001	-8.170645759881007E-002	6.8741829E-005
2	1	0	0	1.687699957365112E+000	-8.3625370E-001	-8.3632642E-001	-8.017243927029716E-002	6.7050329E-005
2	1	0	0	1.737799956099479E+000	-8.3124578E-001	-8.3133489E-001	-7.864053475768823E-002	6.5376618E-005
2	1	0	0	1.787799954836373E+000	-8.2624352E-001	-8.2632637E-001	-7.713819978673636E-002	6.3741332E-005
2	1	0	1	1.837899953570741E+000	-8.2123488E-001	-8.2131201E-001	-7.554466051248321E-002	6.2045736E-005
2	1	0	1	1.887999952305108E+000	-8.1622475E-001	-8.1629926E-001	-7.400724138356796E-002	6.0412058E-005
2	1	0	1	1.937999951042002E+000	-8.1122255E-001	-8.1130004E-001	-7.250645854717985E-002	5.8824491E-005
2	1	0	0	1.988099949776370E+000	-8.0621576E-001	-8.0628669E-001	-7.094890713860363E-002	5.7205161E-005
2	1	0	0	2.038199948510737E+000	-8.0120409E-001	-8.0126417E-001	-6.945260488914262E-002	5.5649885E-005
2	1	0	0	2.088199947247631E+000	-7.9620355E-001	-7.9628175E-001	-6.800620914978939E-002	5.4152104E-005
2	1	0	0	2.138199945984525E+000	-7.9120582E-001	-7.9127043E-001	-6.656903045743021E-002	5.2674106E-005
2	1	0	1	2.188399944716366E+000	-7.8618360E-001	-7.8623706E-001	-6.517609957453624E-002	5.1243864E-005
2	1	0	1	2.238399943453260E+000	-7.8118455E-001	-7.8123790E-001	-6.374459765696922E-002	4.9799695E-005
2	1	0	1	2.288399942190154E+000	-7.7618474E-001	-7.7624953E-001	-6.237590606317717E-002	4.8419268E-005
2	1	0	0	2.338599940921995E+000	-7.7116281E-001	-7.7121347E-001	-6.103685671728021E-002	4.7072444E-005
2	1	0	0	2.388599939658889E+000	-7.6616555E-001	-7.6623017E-001	-5.971263803619659E-002	4.5753626E-005
2	1	0	0	2.438599938395782E+000	-7.6116431E-001	-7.6120716E-001	-5.841192788855454E-002	4.4463577E-005
2	1	0	1	2.488699937130150E+000	-7.5615323E-001	-7.5619519E-001	-5.716769534517940E-002	4.3229935E-005
2	1	0	1	2.538799935864517E+000	-7.5114566E-001	-7.5118256E-001	-5.601665616884277E-002	4.2078736E-005
2	1	0	1	2.588799934601411E+000	-7.4614376E-001	-7.4619162E-001	-5.479947965848597E-002	4.0890911E-005
2	1	0	0	2.638899933335779E+000	-7.4113429E-001	-7.4118358E-001	-5.357177644850014E-002	3.9706520E-005
2	1	0	0	2.688999932070146E+000	-7.3612463E-001	-7.3616415E-001	-5.234952444803620E-002	3.8537844E-005
2	1	0	0	2.738999930807040E+000	-7.3112267E-001	-7.3117006E-001	-5.119163166001266E-002	3.7429789E-005
2	1	0	1	2.789099929541408E+000	-7.2611523E-001	-7.2614616E-001	-5.003045389315353E-002	3.6329420E-005
2	1	0	1	2.839199928275775E+000	-7.2110426E-001	-7.2114617E-001	-4.894737512832686E-002	3.5298213E-005
2	1	0	1	2.889199927012669E+000	-7.1610302E-001	-7.1615356E-001	-4.795285876927013E-002	3.4341610E-005
2	1	0	1	2.954199925370631E+000	-7.0960361E-001	-7.0965707E-001	-4.655609735105798E-002	3.3038865E-005
2	1	0	0	3.019399923723540E+000	-7.0308584E-001	-7.0312697E-001	-4.511566543780615E-002	3.1722040E-005
2	1	0	0	3.069399922460434E+000	-6.9808340E-001	-6.9813555E-001	-4.407532202205866E-002	3.0770549E-005
2	1	0	1	3.119499921194802E+000	-6.9307357E-001	-6.9311100E-001	-4.306450300505749E-002	2.9848481E-005
2	1	0	1	3.169599919929169E+000	-6.8806517E-001	-6.8810368E-001	-4.208119775736741E-002	2.8956227E-005
2	1	0	1	3.219599918666063E+000	-6.8306267E-001	-6.8309766E-001	-4.114292722835866E-002	2.8104638E-005
2	1	0	0	3.269699917400430E+000	-6.7805523E-001	-6.7810273E-001	-4.015942460992883E-002	2.7232216E-005
2	1	0	0	3.319799916134798E+000	-6.7304403E-001	-6.7308056E-001	-3.921052357667670E-002	2.6391841E-005
2	1	0	0	3.369799914871692E+000	-6.6804242E-001	-6.6808146E-001	-3.831293360497601E-002	2.5596160E-005
2	1	0	0	3.419799913608585E+000	-6.6304582E-001	-6.6308320E-001	-3.742529168190301E-002	2.4816081E-005
2	1	0	1	3.469999912340427E+000	-6.5802330E-001	-6.5804535E-001	-3.653125535265134E-002	2.4039222E-005
2	1	0	1	3.519999911077321E+000	-6.5302306E-001	-6.5307027E-001	-3.567211744018126E-002	2.3296399E-005
2	1	0	1	3.569999909814214E+000	-6.4802521E-001	-6.4807147E-001	-3.483275785818496E-002	2.2574117E-005
2	1	0	0	3.620199908546056E+000	-6.4300251E-001	-6.4305872E-001	-3.399533702840141E-002	2.1860998E-005
2	1	0	0	3.670199907282949E+000	-6.3800478E-001	-6.3808590E-001	-3.322658778661053E-002	2.1201417E-005
2	1	0	0	3.720199906019843E+000	-6.3300431E-001	-6.3309056E-001	-3.244185739862610E-002	2.0538633E-005
2	1	0	1	3.770399904751685E+000	-6.2798196E-001	-6.2805408E-001	-3.166231131309376E-002	1.9885643E-005
2	1	0	1	3.820399903488578E+000	-6.2298542E-001	-6.2306130E-001	-3.089510315132871E-002	1.9249543E-005
2	1	0	1	3.870399902225472E+000	-6.1798358E-001	-6.1806506E-001	-3.017528412966392E-002	1.8650289E-005
2	1	0	0	3.920499900959840E+000	-6.1297274E-001	-6.1303800E-001	-2.942981182356132E-002	1.8041594E-005
2	1	0	0	3.970599899694207E+000	-6.0796535E-001	-6.0803181E-001	-2.869982767959406E-002	1.7450408E-005
2	1	0	0	4.020599898431101E+000	-6.0296291E-001	-6.0302538E-001	-2.799247974560792E-002	1.6880176E-005
2	1	0	1	4.070699897165468E+000	-5.9795433E-001	-5.9802532E-001	-2.728491431342953E-002	1.6317070E-005
2	1	0	1	4.120799895899836E+000	-5.9294450E-001	-5.9301805E-001	-2.659287417516698E-002	1.5770054E-005
2	1	0	1	4.170799894636730E+000	-5.8794218E-001	-5.8801031E-001	-2.593341285635010E-002	1.5249114E-005
2	1	0	0	4.220899893371097E+000	-5.8293509E-001	-5.8299661E-001	-2.529435873240460E-002	1.4746525E-005
2	1	0	0	4.270999892105465E+000	-5.7792366E-001	-5.7800770E-001	-2.463026924822503E-002	1.4236485E-005
2	1	0	0	4.320999890842359E+000	-5.7292241E-001	-5.7300758E-001	-2.400968514006452E-002	1.3757732E-005
2	1	0	0	4.370999889579252E+000	-5.6792539E-001	-5.6800193E-001	-2.339458753350970E-002	1.3288171E-005
2	1	0	1	4.421199888311094E+000	-5.6290299E-001	-5.6298280E-001	-2.280850607989349E-002	1.2840796E-005
2	1	0	1	4.471199887047987E+000	-5.5790395E-001	-5.5799401E-001	-2.220851938916396E-002	1.2392221E-005
2	1	0	1	4.521199885784881E+000	-5.5290437E-001	-5.5298245E-001	-2.162087378920025E-002	1.1955964E-005
2	1	0	0	4.571399884516723E+000	-5.4788220E-001	-5.4794693E-001	-2.105849714068087E-002	1.1538938E-005
2	1	0	0	4.621399883253616E+000	-5.4288471E-001	-5.4295963E-001	-2.049130387499580E-002	1.1125951E-005
2	1	0	0	4.671399881990510E+000	-5.3788388E-001	-5.3794670E-001	-1.994648891444883E-002	1.0730148E-005
2	1	0	1	4.721499880724878E+000	-5.3287226E-001	-5.3293324E-001	-1.941989920225259E-002	1.0349509E-005
2	1	0	1	4.771599879459245E+000	-5.2786559E-001	-5.2792633E-001	-1.889827710826714E-002	9.9768977E-006
2	1	0	1	4.821599878196139E+000	-5.2286321E-001	-5.2292830E-001	-1.837901448885909E-002	9.6109070E-006
2	1	0	0	4.871699876930506E+000	-5.1785356E-001	-5.1792294E-001	-1.786830871903811E-002	9.2544069E-006
2	1	0	0	4.921799875664874E+000	-5.1284444E-001	-5.1290822E-001	-1.737585830933680E-002	8.9122204E-006
2	1	0	0	4.971799874401768E+000	-5.0784212E-001	-5.0789666E-001	-1.688971172725609E-002	8.5782285E-006
2	1	0	1	5.021899873136135E+000	-5.0283444E-001	-5.0292170E-001	-1.640717148325180E-002	8.2515226E-006
2	1	0	1	5.071999871870503E+000	-4.9782386E-001	-4.9790341E-001	-1.595561721559741E-002	7.9443562E-006
2	1	0	1	5.121999870607397E+000	-4.9282202E-001	-4.9288437E-001	-1.552440671779792E-002	7.6517372E-006
2	1	0	1	5.171999869344290E+000	-4.8782545E-001	-4.8788762E-001	-1.509578390115113E-002	7.3650463E-006
2	1	0	0	5.222199868076132E+000	-4.8280317E-001	-4.8285624E-001	-1.465451951457636E-002	7.0760261E-006
2	1	0	0	5.272199866813025E+000	-4.7780320E-001	-4.7784734E-001	-1.423783815382812E-002	6.8035129E-006
2	1	0	0	5.322199865549919E+000	-4.7280437E-001	-4.7285846E-001	-1.381523315519656E-002	6.5326499E-006
2	1	0	1	5.372399864281761E+000	-4.6778250E-001	-4.6781883E-001	-1.340221015919252E-002	6.2698064E-006
2	1	0	1	5.422399863018654E+000	-4.6278414E-001	-4.6282491E-001	-1.301695396664714E-002	6.0245707E-006
2	1	0	1	5.472399861755548E+000	-4.5778406E-001	-4.5783338E-001	-1.264060764476638E-002	5.7872921E-006
2	1	0	0	5.522499860489916E+000	-4.5277181E-001	-4.5282492E-001	-1.226124901947286E-002	5.5521991E-006
2	1	0	0	5.572599859224283E+000	-4.4776553E-001	-4.4780537E-001	-1.190194553202514E-002	5.3297554E-006
2	1	0	0	5.622599857961177E+000	-4.4276336E-001	-4.4280884E-001	-1.153938511054031E-002	5.1097418E-006
2	1	0	1	5.672699856695544E+000	-4.3775293E-001	-4.3779287E-001	-1.117957882163564E-002	4.8943398E-006
2	1	0	1	5.722799855429912E+000	-4.3274456E-001	-4.3277785E-001	-1.084261346548324E-002	4.6924429E-006
2	1	0	1	5.772799854166806E+000	-4.2774242E-001	-4.2778409E-001	-1.051277062407907E-002	4.4971962E-006
2	1	0	0	5.822899852901173E+000	-4.2273387E-001	-4.2278352E-001	-1.019861716010302E-002	4.3118075E-006
2	1	0	0	5.872999851635541E+000	-4.1772407E-001	-4.1776633E-001	-9.889940317685864E-003	4.1316839E-006
2	1	0	0	5.922999850372435E+000	-4.1272178E-001	-4.1276291E-001	-9.566413019884035E-003	3.9486604E-006
2	1	0	1	5.973099849106802E+000	-4.0771511E-001	-4.0775308E-001	-9.268465514966594E-003	3.7792454E-006
2	1	0	1	6.023199847841170E+000	-4.0270320E-001	-4.0276605E-001	-8.973288064550833E-003	3.6141357E-006
2	1	0	1	6.073199846578063E+000	-3.9770260E-001	-3.9776441E-001	-8.691604264709057E-003	3.4572108E-006
2	1	0	1	6.123199845314957E+000	-3.9270452E-001	-3.9275646E-001	-8.404700970791466E-003	3.3010006E-006
2	1	0	0	6.173399844046799E+000	-3.8768247E-001	-3.8772964E-001	-8.130324857242396E-003	3.1523680E-006
2	1	0	0	6.223399842783692E+000	-3.8268363E-001	-3.8274369E-001	-7.852554130933095E-003	3.0055155E-006
2	1	0	0	6.273399841520586E+000	-3.7768421E-001	-3.7774113E-001	-7.613780663964898E-003	2.8760380E-006
2	1	0	1	6.323599840252427E+000	-3.7266195E-001	-3.7270984E-001	-7.352516420560076E-003	2.7403553E-006
2	1	0	1	6.373599838989321E+000	-3.6766472E-001	-3.6771819E-001	-7.093519068541589E-003	2.6084160E-006
2	1	0	1	6.423599837726215E+000	-3.6266324E-001	-3.6272386E-001	-6.850554008771784E-003	2.4848594E-006
2	1	0	0	6.473699836460582E+000	-3.5765225E-001	-3.5769895E-001	-6.615741848554652E-003	2.3664438E-006
2	1	0	0	6.523799835194950E+000	-3.5264468E-001	-3.5268629E-001	-6.380794725148506E-003	2.2504189E-006
2	1	0	0	6.573799833931844E+000	-3.4764263E-001	-3.4769413E-001	-6.154765752865658E-003	2.1399760E-006
2	1	0	1	6.623899832666211E+000	-3.4263340E-001	-3.4266832E-001	-5.922198865626581E-003	2.0293501E-006
2	1	0	1	6.673999831400579E+000	-3.3762422E-001	-3.3766657E-001	-5.716849574558229E-003	1.9303891E-006
2	1	0	1	6.723999830137473E+000	-3.3262208E-001	-3.3265039E-001	-5.507483254774195E-003	1.8320665E-006
2	1	0	0	6.774099828871840E+000	-3.2761443E-001	-3.2764289E-001	-5.310419042102750E-003	1.7399210E-006
2	1	0	0	6.824199827606208E+000	-3.2260299E-001	-3.2265440E-001	-5.120980723996096E-003	1.6523070E-006
2	1	0	0	6.874199826343101E+000	-3.1760180E-001	-3.1766158E-001	-4.920748083323203E-003	1.5631326E-006
2	1	0	0	6.924199825079995E+000	-3.1260464E-001	-3.1265077E-001	-4.735095994513751E-003	1.4804314E-006
2	1	0	1	6.989599823427852E+000	-3.0606103E-001	-3.0611172E-001	-4.500074871284565E-003	1.3775257E-006
2	1	0	0	7.054999821775709E+000	-2.9952258E-001	-2.9957911E-001	-4.255369432267550E-003	1.2748199E-006
2	1	0	0	7.104999820512603E+000	-2.9452297E-001	-2.9456499E-001	-4.081678081728407E-003	1.2023195E-006
2	1	0	0	7.154999819249497E+000	-2.8952423E-001	-2.8956607E-001	-3.918907552184818E-003	1.1347827E-006
2	1	0	1	7.205199817981338E+000	-2.8450179E-001	-2.8455332E-001	-3.761189843530813E-003	1.0702590E-006
2	1	0	1	7.255199816718232E+000	-2.7950376E-001	-2.7953768E-001	-3.603894006073655E-003	1.0074242E-006
2	1	0	1	7.305199815455126E+000	-2.7450365E-001	-2.7453169E-001	-3.451840631035985E-003	9.4763965E-007
2	1	0	0	7.355299814189493E+000	-2.6949123E-001	-2.6953393E-001	-3.304719265330706E-003	8.9073399E-007
2	1	0	0	7.405399812923861E+000	-2.6448524E-001	-2.6453525E-001	-3.153167797640521E-003	8.3412402E-007
2	1	0	0	7.455399811660754E+000	-2.5948286E-001	-2.5951704E-001	-3.010264279500165E-003	7.8121491E-007
2	1	0	1	7.505499810395122E+000	-2.5447252E-001	-2.5452021E-001	-2.868193292213522E-003	7.3001314E-007
2	1	0	1	7.555599809129490E+000	-2.4946417E-001	-2.4950422E-001	-2.733355273495400E-003	6.8198369E-007
2	1	0	1	7.605599807866383E+000	-2.4446206E-001	-2.4451382E-001	-2.605177069177254E-003	6.3700179E-007
2	1	0	0	7.655699806600751E+000	-2.3945346E-001	-2.3951413E-001	-2.478639470490686E-003	5.9366914E-007
2	1	0	0	7.705799805335118E+000	-2.3444358E-001	-2.3450531E-001	-2.357695056717461E-003	5.5289200E-007
2	1	0	0	7.755799804072012E+000	-2.2944115E-001	-2.2951600E-001	-2.246288371409040E-003	5.1555912E-007
2	1	0	1	7.805899802806380E+000	-2.2443493E-001	-2.2448938E-001	-2.129193613829792E-003	4.7798136E-007
2	1	0	1	7.855999801540747E+000	-2.1942288E-001	-2.1949863E-001	-2.016418843436043E-003	4.4260119E-007
2	1	0	1	7.905999800277641E+000	-2.1442209E-001	-2.1448854E-001	-1.909365378030263E-003	4.0953699E-007
2	1	0	1	7.955999799014535E+000	-2.0942433E-001	-2.0948683E-001	-1.804689604368401E-003	3.7805870E-007
2	1	0	0	8.006199797746376E+000	-2.0440216E-001	-2.0447342E-001	-1.700947641461268E-003	3.4779859E-007
2	1	0	0	8.056199796483270E+000	-1.9940318E-001	-1.9947442E-001	-1.609003708568965E-003	3.2095508E-007
2	1	0	0	8.106199795220164E+000	-1.9440371E-001	-1.9446802E-001	-1.515788316346404E-003	2.9477235E-007
2	1	0	1	8.156399793952005E+000	-1.8938138E-001	-1.8944845E-001	-1.419165456742776E-003	2.6885868E-007
2	1	0	1	8.206399792688899E+000	-1.8438450E-001	-1.8443707E-001	-1.332276079866530E-003	2.4572108E-007
2	1	0	1	8.256399791425793E+000	-1.7938304E-001	-1.7943265E-001	-1.247306649242035E-003	2.2380753E-007
2	1	0	0	8.306499790160160E+000	-1.7437166E-001	-1.7443976E-001	-1.165477770106062E-003	2.0330566E-007
2	1	0	0	8.356599788894528E+000	-1.6936444E-001	-1.6940658E-001	-1.081521055248312E-003	1.8321678E-007
2	1	0	0	8.406599787631421E+000	-1.6436215E-001	-1.6442010E-001	-1.006688365544224E-003	1.6551979E-007
2	1	0	1	8.456699786365789E+000	-1.5935288E-001	-1.5939687E-001	-9.285280010963536E-004	1.4800446E-007
2	1	0	1	8.506799785100156E+000	-1.5434365E-001	-1.5438521E-001	-8.575809723560322E-004	1.3239782E-007
2	1	0	1	8.556799783837050E+000	-1.4934133E-001	-1.4936922E-001	-7.915139020513388E-004	1.1822782E-007
2	1	0	0	8.606899782571418E+000	-1.4433405E-001	-1.4436960E-001	-7.230510925358320E-004	1.0438660E-007
2	1	0	0	8.656999781305785E+000	-1.3932297E-001	-1.3934743E-001	-6.589745925212626E-004	9.1826422E-008
2	1	0	0	8.706999780042679E+000	-1.3432135E-001	-1.3432777E-001	-5.986599020223757E-004	8.0416648E-008
2	1	0	0	8.756999778779573E+000	-1.2932441E-001	-1.2934242E-001	-5.386683801332486E-004	6.9672673E-008
2	1	0	1	8.807199777511414E+000	-1.2430222E-001	-1.2432289E-001	-4.792977565856900E-004	5.9587684E-008
2	1	0	1	8.857199776248308E+000	-1.1930256E-001	-1.1933272E-001	-4.266546801542622E-004	5.0913865E-008
2	1	0	1	8.907199774985202E+000	-1.1430383E-001	-1.1432184E-001	-3.751933864143278E-004	4.2892797E-008
2	1	0	0	8.957399773717043E+000	-1.0928162E-001	-1.0931822E-001	-3.229317061971952E-004	3.5302318E-008
2	1	0	0	9.007399772453937E+000	-1.0428369E-001	-1.0431784E-001	-2.738616884089050E-004	2.8568659E-008
2	1	0	0	9.057399771190831E+000	-9.9283099E-002	-9.9295430E-002	-2.265951705825537E-004	2.2499865E-008
2	1	0	1	9.107499769925198E+000	-9.4271094E-002	-9.4305292E-002	-1.810722330365383E-004	1.7076070E-008
2	1	0	1	9.157599768659566E+000	-8.9264631E-002	-8.9299418E-002	-1.372000974311342E-004	1.2251889E-008
2	1	0	1	9.207599767396459E+000	-8.4262334E-002	-8.4311582E-002	-9.640102891499136E-005	8.1277234E-009
2	1	0	0	9.257699766130827E+000	-7.9252183E-002	-7.9282314E-002	-5.635139844317088E-005	4.4676693E-009
2	1	0	0	9.307799764865194E+000	-7.4243926E-002	-7.4274912E-002	-1.951237430499085E-005	1.4492799E-009
2	1	0	0	9.357799763602088E+000	-6.9241486E-002	-6.9275633E-002	1.812501026587576E-005	1.2556215E-009
2	1	0	1	9.407899762336456E+000	-6.4233355E-002	-6.4260550E-002	5.410604002559739E-005	3.4768839E-009
2	1	0	1	9.457999761070823E+000	-5.9223037E-002	-5.9242066E-002	9.081276486437866E-005	5.3799356E-009
2	1	0	1	9.507999759807717E+000	-5.4220825E-002	-5.4249980E-002	1.244433941211434E-004	6.7510517E-009
2	1	0	0	9.558099758542085E+000	-4.9214512E-002	-4.9245544E-002	1.578116157408952E-004	7.7715185E-009
2	1	0	0	9.608199757276452E+000	-4.4202324E-002	-4.4232875E-002	1.894717061015402E-004	8.3808782E-009
2	1	0	0	9.658199756013346E+000	-3.9201893E-002	-3.9228424E-002	2.198610235787080E-004	8.6248013E-009
2	1	0	0	9.708199754750240E+000	-3.4203880E-002	-3.4231022E-002	2.496574654070739E-004	8.5460305E-009
2	1	0	1	9.758399753482081E+000	-2.9181646E-002	-2.9206321E-002	2.783571044796184E-004	8.1297866E-009
2	1	0	1	9.808399752218975E+000	-2.4183029E-002	-2.4213709E-002	3.071668368245851E-004	7.4376483E-009
2	1	0	1	9.858399750955869E+000	-1.9183185E-002	-1.9192658E-002	3.351252853594435E-004	6.4319452E-009
2	1	0	0	9.908599749687710E+000	-1.4160951E-002	-1.4178627E-002	3.636540379091998E-004	5.1561151E-009
2	1	0	0	9.958599748424604E+000	-9.1641434E-003	-9.2150671E-003	3.908724434914877E-004	3.6019159E-009
2	1	0	0	1.000859974716150E+001	-4.1624946E-003	-4.2140055E-003	4.183693881183916E-004	1.7630110E-009
2	1	0	1	1.005869974589586E+001	8.4844069E-004	8.2162319E-004	4.452828588351661E-004	3.6585474E-010
2	1	0	1	1.010879974463023E+001	5.8559244E-003	5.8121937E-003	4.723571369325682E-004	2.7454312E-009
2	1	0	1	1.015879974336713E+001	1.0858157E-002	1.0815888E-002	4.995921765041256E-004	5.4035327E-009
2	1	0	0	1.020889974210149E+001	1.5867252E-002	1.5836570E-002	5.272358583120413E-004	8.3496081E-009
2	1	0	0	1.025899974083586E+001	2.0876555E-002	2.0848123E-002	5.543852943386135E-004	1.1557893E-008
2	1	0	0	1.030899973957276E+001	2.5878988E-002	2.5849426E-002	5.825755657341205E-004	1.5059245E-008
2	1	0	1	1.035909973830712E+001	3.0886067E-002	3.0847194E-002	6.103845759151049E-004	1.8828651E-008
2	1	0	1	1.040919973704149E+001	3.5897382E-002	3.5873901E-002	6.387072629350579E-004	2.2912921E-008
2	1	0	1	1.045919973577838E+001	4.0898617E-002	4.0859707E-002	6.668386155820119E-004	2.7246831E-008
2	1	0	1	1.050919973451528E+001	4.5895793E-002	4.5861270E-002	6.958122497234404E-004	3.1910833E-008
2	1	0	0	1.055939973324712E+001	5.0918009E-002	5.0888337E-002	7.265010248239407E-004	3.6970430E-008
2	1	0	0	1.060939973198401E+001	5.5917382E-002	5.5895243E-002	7.578917242229959E-004	4.2362544E-008
2	1	0	0	1.065939973072091E+001	6.0916387E-002	6.0887340E-002	7.892694462114467E-004	4.8056517E-008
2	1	0	1	1.070959972945275E+001	6.5938659E-002	6.5930218E-002	8.216658101417602E-004	5.4172606E-008
2	1	0	1	1.075959972818964E+001	7.0936240E-002	7.0900962E-002	8.548195761376824E-004	6.0607533E-008
2	1	0	1	1.080959972692654E+001	7.5937048E-002	7.5905867E-002	8.875990784180179E-004	6.7373975E-008
2	1	0	0	1.085969972566090E+001	8.0948815E-002	8.0928370E-002	9.233976860905657E-004	7.4729073E-008
2	1	0	0	1.090979972439527E+001	8.5955508E-002	8.5937336E-002	9.608606919529479E-004	8.2573806E-008
2	1	0	0	1.095979972313216E+001	9.0957895E-002	9.0921305E-002	9.996091344230598E-004	9.0885770E-008
2	1	0	1	1.100989972186653E+001	9.5967546E-002	9.5939741E-002	1.038195551001807E-003	9.9604215E-008
2	1	0	1	1.104249972104299E+001	9.9229328E-002	9.9201187E-002	1.064437640140303E-003	1.0559348E-007
2	1	0	0	1.105019972084847E+001	9.9997856E-002	1.0006644E-001	1.058900379575789E-003	1.0596039E-007