EC-Lab ASCII FILE
Nb header lines : 55                          

I-V Characterization

Run on channel : 1 (SN 6514)
User : 
CE vs. WE compliance from -10 V to 10 V
Electrode connection : standard
Ewe ctrl range : min = -1.10 V, max = 0.20 V
Safety Limits :
	Do not start on E overload
Acquisition started on : 06/15/2016 19:43:19
Saved on :
	File : B125-G54-UN-G-D1GB-C16 BW 100mVs_02_IVC_C01.mpr
	Directory : E:\EC-Lab measurements\B125-G54-UN-G-D1GB\
	Host : 10.0.2.15
Device : VSP (SN 0295)
Address : USB
EC-Lab for windows v11.01 (software)
Internet server v11.00 (firmware)
Command interpretor v11.00 (firmware)
Electrode material : 
Initial state : 
Electrolyte : 
Comments : 
Electrode surface area : 0.001 cm²
Characteristic mass : 0.001 g
Equivalent Weight : 0.000 g/eq.
Density : 0.000 g/cm3
tR (h:m:s)          0:00:0.0000         
dER/dt (mV/h)       0.0                 
dER (mV)            0                   
dtR (s)             0.0000              
dE/dt               100.000             
dE/dt unit          mV/s                
Ei (V)              -1.000              
vs.                 Ref                 
EL (V)              0.100               
vs.                 Ref                 
record              <I>                 
dI                  0.000               
unit dI             µA                  
tI (s)              0.1000              
step percent        100                 
N                   100                 
E range min (V)     -1.100              
E range max (V)     0.200               
I Range             Auto                
I Range min         Unset               
I Range max         Unset               
I Range init        Unset               
Bandwidth           5                   

mode	ox/red	error	control changes	time/s	control/V	Ewe/V	<I>/mA	P/W
2	1	0	1	1.105119972082321E+001	-1.0000715E+000	-1.0799062E+000	-3.268801569938660E-001	3.5299992E-004
2	1	0	1	1.107639972018660E+001	-9.9754560E-001	-9.9763417E-001	-2.096256739163857E+000	2.0912974E-003
2	1	0	1	1.112639971892349E+001	-9.9254352E-001	-9.9263942E-001	-2.123631715300690E+000	2.1080005E-003
2	1	0	0	1.117649971765786E+001	-9.8753279E-001	-9.8763764E-001	-2.122678268702655E+000	2.0964369E-003
2	1	0	0	1.122659971639223E+001	-9.8252517E-001	-9.8261690E-001	-2.116325623776358E+000	2.0795374E-003
2	1	0	0	1.127659971512912E+001	-9.7752255E-001	-9.7761303E-001	-2.108314731864292E+000	2.0611160E-003
2	1	0	1	1.132669971386349E+001	-9.7251463E-001	-9.7259617E-001	-2.096145622559138E+000	2.0387033E-003
2	1	0	1	1.137679971259786E+001	-9.6750438E-001	-9.6760654E-001	-2.080740014159321E+000	2.0133376E-003
2	1	0	1	1.142679971133475E+001	-9.6250188E-001	-9.6260846E-001	-2.066360950368522E+000	1.9890966E-003
2	1	0	0	1.147689971006912E+001	-9.5749539E-001	-9.5756489E-001	-2.050154615709488E+000	1.9631560E-003
2	1	0	0	1.152699970880349E+001	-9.5248336E-001	-9.5257205E-001	-2.033500836996225E+000	1.9370561E-003
2	1	0	0	1.157699970754038E+001	-9.4748324E-001	-9.4759542E-001	-2.014789882381997E+000	1.9092057E-003
2	1	0	0	1.162699970627727E+001	-9.4248497E-001	-9.4259346E-001	-1.995471122015541E+000	1.8809180E-003
2	1	0	1	1.167719970500912E+001	-9.3746281E-001	-9.3756676E-001	-1.972508286688008E+000	1.8493582E-003
2	1	0	1	1.172719970374601E+001	-9.3246454E-001	-9.3256921E-001	-1.947424265176720E+000	1.8161079E-003
2	1	0	1	1.177719970248290E+001	-9.2746383E-001	-9.2757338E-001	-1.922141805711121E+000	1.7829275E-003
2	1	0	0	1.182729970121727E+001	-9.2245185E-001	-9.2255586E-001	-1.892148301974359E+000	1.7456125E-003
2	1	0	0	1.187739969995164E+001	-9.1744572E-001	-9.1753781E-001	-1.861825134218329E+000	1.7082950E-003
2	1	0	0	1.192739969868853E+001	-9.1244298E-001	-9.1254520E-001	-1.829349213833037E+000	1.6693638E-003
2	1	0	1	1.197749969742290E+001	-9.0743369E-001	-9.0752995E-001	-1.794447682620667E+000	1.6285150E-003
2	1	0	1	1.202759969615727E+001	-9.0242475E-001	-9.0252560E-001	-1.757102908276146E+000	1.5858304E-003
2	1	0	1	1.207759969489416E+001	-8.9742237E-001	-8.9751172E-001	-1.717726231863038E+000	1.5416794E-003
2	1	0	0	1.212769969362853E+001	-8.9241433E-001	-8.9251471E-001	-1.676885132516964E+000	1.4966447E-003
2	1	0	0	1.217779969236290E+001	-8.8740402E-001	-8.8749796E-001	-1.633238946931318E+000	1.4494963E-003
2	1	0	0	1.222779969109979E+001	-8.8240182E-001	-8.8249505E-001	-1.589896373325530E+000	1.4030756E-003
2	1	0	0	1.227779968983668E+001	-8.7740558E-001	-8.7750173E-001	-1.544744704950761E+000	1.3555161E-003
2	1	0	1	1.232799968856853E+001	-8.7238306E-001	-8.7248415E-001	-1.497690321428809E+000	1.3067111E-003
2	1	0	1	1.237799968730542E+001	-8.6738336E-001	-8.6749637E-001	-1.449377605777265E+000	1.2573298E-003
2	1	0	1	1.242799968604231E+001	-8.6238432E-001	-8.6249250E-001	-1.400835206639492E+000	1.2082099E-003
2	1	0	0	1.247819968477415E+001	-8.5736227E-001	-8.5746956E-001	-1.350604469007262E+000	1.1581022E-003
2	1	0	0	1.252819968351105E+001	-8.5236460E-001	-8.5247147E-001	-1.300341223713284E+000	1.1085038E-003
2	1	0	0	1.257819968224794E+001	-8.4736377E-001	-8.4747207E-001	-1.250778318814635E+000	1.0599997E-003
2	1	0	1	1.262829968098231E+001	-8.4235245E-001	-8.4244049E-001	-1.199685820205525E+000	1.0106639E-003
2	1	0	1	1.267839967971668E+001	-8.3734506E-001	-8.3743382E-001	-1.148772447686994E+000	9.6202089E-004
2	1	0	1	1.272839967845357E+001	-8.3234257E-001	-8.3245999E-001	-1.097206567610296E+000	9.1338059E-004
2	1	0	0	1.277849967718794E+001	-8.2733345E-001	-8.2745874E-001	-1.045771359996388E+000	8.6533267E-004
2	1	0	0	1.282859967592231E+001	-8.2232457E-001	-8.2243437E-001	-9.954082205254853E-001	8.1865792E-004
2	1	0	0	1.287859967465920E+001	-8.1732178E-001	-8.1743300E-001	-9.450082512974731E-001	7.7248091E-004
2	1	0	1	1.292869967339357E+001	-8.1231499E-001	-8.1243324E-001	-8.949664652048259E-001	7.2710053E-004
2	1	0	1	1.297879967212793E+001	-8.0730343E-001	-8.0739754E-001	-8.457752939508163E-001	6.8287691E-004
2	1	0	1	1.302879967086483E+001	-8.0230224E-001	-8.0239010E-001	-7.969335388424557E-001	6.3945161E-004
2	1	0	1	1.307879966960172E+001	-7.9730493E-001	-7.9740864E-001	-7.488248897703746E-001	5.9711945E-004
2	1	0	0	1.312899966833356E+001	-7.9228288E-001	-7.9237330E-001	-7.012532946746768E-001	5.5565441E-004
2	1	0	0	1.317899966707046E+001	-7.8728330E-001	-7.8736556E-001	-6.548664238005237E-001	5.1561929E-004
2	1	0	0	1.322899966580735E+001	-7.8228426E-001	-7.8236765E-001	-6.088362790671349E-001	4.7633381E-004
2	1	0	1	1.327919966453919E+001	-7.7726191E-001	-7.7733874E-001	-5.638712571296329E-001	4.3831897E-004
2	1	0	1	1.332919966327609E+001	-7.7226484E-001	-7.7235007E-001	-5.198005957574861E-001	4.0146802E-004
2	1	0	1	1.339419966163405E+001	-7.6576281E-001	-7.6584101E-001	-4.642935172498444E-001	3.5557500E-004
2	1	0	0	1.345939965998696E+001	-7.5924343E-001	-7.5927931E-001	-4.100657183558303E-001	3.1135441E-004
2	1	0	0	1.350939965872385E+001	-7.5424206E-001	-7.5427598E-001	-3.694491236395763E-001	2.7866659E-004
2	1	0	0	1.355939965746074E+001	-7.4924511E-001	-7.4926543E-001	-3.299683959181641E-001	2.4723393E-004
2	1	0	1	1.360959965619259E+001	-7.4422246E-001	-7.4424136E-001	-2.910312424741277E-001	2.1659749E-004
2	1	0	1	1.365959965492948E+001	-7.3922360E-001	-7.3924762E-001	-2.532395212593377E-001	1.8720671E-004
2	1	0	1	1.370959965366637E+001	-7.3422378E-001	-7.3425424E-001	-2.165184785270460E-001	1.5897962E-004
2	1	0	0	1.375979965239821E+001	-7.2920173E-001	-7.2921985E-001	-1.804316410248257E-001	1.3157433E-004
2	1	0	0	1.380979965113511E+001	-7.2420466E-001	-7.2423375E-001	-1.454740061691573E-001	1.0535718E-004
2	1	0	0	1.385979964987200E+001	-7.1920311E-001	-7.1922445E-001	-1.114894997153479E-001	8.0185971E-005
2	1	0	1	1.390989964860637E+001	-7.1419257E-001	-7.1424204E-001	-7.829634296311760E-002	5.5922541E-005
2	1	0	1	1.395999964734074E+001	-7.0918453E-001	-7.0921475E-001	-4.594348776289842E-002	3.2583797E-005
2	1	0	1	1.400999964607763E+001	-7.0418221E-001	-7.0421714E-001	-1.412981884234299E-002	9.9504605E-006
2	1	0	0	1.406009964481200E+001	-6.9917357E-001	-6.9919699E-001	1.667644812889241E-002	1.1660122E-005
2	1	0	0	1.411019964354637E+001	-6.9416344E-001	-6.9420069E-001	4.640344000686625E-002	3.2213302E-005
2	1	0	0	1.416019964228326E+001	-6.8916112E-001	-6.8919235E-001	7.545789872718789E-002	5.2005005E-005
2	1	0	1	1.421029964101763E+001	-6.8415511E-001	-6.8417382E-001	1.038227639339075E-001	7.1032817E-005
2	1	0	1	1.426039963975200E+001	-6.7914283E-001	-6.7917311E-001	1.315482873989489E-001	8.9344059E-005
2	1	0	1	1.431039963848889E+001	-6.7414266E-001	-6.7417967E-001	1.587066709743663E-001	1.0699681E-004
2	1	0	1	1.436039963722578E+001	-6.6914415E-001	-6.6919494E-001	1.846103427059518E-001	1.2354030E-004
2	1	0	0	1.441059963595762E+001	-6.6412181E-001	-6.6414434E-001	2.097859699646814E-001	1.3932817E-004
2	1	0	0	1.446059963469452E+001	-6.5912348E-001	-6.5915692E-001	2.338931849767789E-001	1.5417232E-004
2	1	0	0	1.451059963343141E+001	-6.5412354E-001	-6.5415508E-001	2.575302638651182E-001	1.6846473E-004
2	1	0	1	1.456069963216578E+001	-6.4911133E-001	-6.4916277E-001	2.802358288284172E-001	1.8191867E-004
2	1	0	1	1.461079963090015E+001	-6.4410502E-001	-6.4413738E-001	3.029320587562010E-001	1.9512986E-004
2	1	0	1	1.466079962963704E+001	-6.3910270E-001	-6.3915533E-001	3.252265566935915E-001	2.0787028E-004
2	1	0	0	1.471089962837141E+001	-6.3409251E-001	-6.3415843E-001	3.460416512387290E-001	2.1944522E-004
2	1	0	0	1.476099962710578E+001	-6.2908375E-001	-6.2915397E-001	3.665424710276124E-001	2.3061165E-004
2	1	0	0	1.481099962584267E+001	-6.2408143E-001	-6.2415105E-001	3.865423627626239E-001	2.4126082E-004
2	1	0	1	1.486109962457704E+001	-6.1907399E-001	-6.1914480E-001	4.060993864470994E-001	2.5143434E-004
2	1	0	1	1.491119962331140E+001	-6.1406314E-001	-6.1413032E-001	4.244853248419220E-001	2.6068930E-004
2	1	0	1	1.496119962204830E+001	-6.0906154E-001	-6.0912699E-001	4.421763480562868E-001	2.6934154E-004
2	1	0	1	1.501119962078519E+001	-6.0406476E-001	-6.0412872E-001	4.599942192181885E-001	2.7789571E-004
2	1	0	0	1.506139961951703E+001	-5.9904218E-001	-5.9910566E-001	4.773728083695650E-001	2.8599674E-004
2	1	0	0	1.511139961825393E+001	-5.9404230E-001	-5.9409249E-001	4.936653498047949E-001	2.9328288E-004
2	1	0	0	1.516139961699082E+001	-5.8904409E-001	-5.8910501E-001	5.095731634829774E-001	3.0019210E-004
2	1	0	1	1.521159961572266E+001	-5.8402151E-001	-5.8407271E-001	5.247586494369978E-001	3.0649721E-004
2	1	0	1	1.526159961445956E+001	-5.7902402E-001	-5.7907665E-001	5.402231969118425E-001	3.1283064E-004
2	1	0	1	1.531159961319645E+001	-5.7402313E-001	-5.7409042E-001	5.544646426344455E-001	3.1831284E-004
2	1	0	0	1.536169961193082E+001	-5.6901139E-001	-5.6907988E-001	5.682763303238971E-001	3.2339463E-004
2	1	0	0	1.541179961066518E+001	-5.6400424E-001	-5.6408000E-001	5.822913626506867E-001	3.2845890E-004
2	1	0	0	1.546179960940208E+001	-5.5900210E-001	-5.5907041E-001	5.951342582377258E-001	3.3272195E-004
2	1	0	1	1.551189960813645E+001	-5.5399269E-001	-5.5407220E-001	6.083130835046218E-001	3.3704937E-004
2	1	0	1	1.556199960687081E+001	-5.4898393E-001	-5.4904342E-001	6.220637464301992E-001	3.4154000E-004
2	1	0	1	1.561199960560771E+001	-5.4398167E-001	-5.4403687E-001	6.336929574361694E-001	3.4475233E-004
2	1	0	0	1.566209960434207E+001	-5.3897405E-001	-5.3902584E-001	6.458776543559908E-001	3.4814473E-004
2	1	0	0	1.571219960307644E+001	-5.3396267E-001	-5.3402793E-001	6.583309471547842E-001	3.5156711E-004
2	1	0	0	1.576219960181334E+001	-5.2896130E-001	-5.2902192E-001	6.700538350413177E-001	3.5447316E-004
2	1	0	0	1.581219960055023E+001	-5.2396452E-001	-5.2402633E-001	6.819557840094195E-001	3.5736279E-004
2	1	0	1	1.586239959928207E+001	-5.1894206E-001	-5.1900733E-001	6.934994720057190E-001	3.5993132E-004
2	1	0	1	1.591239959801896E+001	-5.1394308E-001	-5.1400852E-001	7.032356940720703E-001	3.6146914E-004
2	1	0	1	1.596239959675586E+001	-5.0894368E-001	-5.0900185E-001	7.133198084716064E-001	3.6308111E-004
2	1	0	0	1.601259959548770E+001	-5.0392109E-001	-5.0397551E-001	7.231143750622877E-001	3.6443194E-004
2	1	0	0	1.606259959422459E+001	-4.9892381E-001	-4.9898621E-001	7.329962447004803E-001	3.6575503E-004
2	1	0	0	1.611259959296149E+001	-4.9392283E-001	-4.9397108E-001	7.443709724338063E-001	3.6769774E-004
2	1	0	1	1.616269959169585E+001	-4.8891145E-001	-4.8895758E-001	7.530412180814379E-001	3.6820522E-004
2	1	0	1	1.621279959043022E+001	-4.8390430E-001	-4.8396233E-001	7.620216246086642E-001	3.6878977E-004
2	1	0	1	1.626279958916712E+001	-4.7890207E-001	-4.7893941E-001	7.705485741983455E-001	3.6904609E-004
2	1	0	0	1.631289958790148E+001	-4.7389287E-001	-4.7394094E-001	7.796845433802547E-001	3.6952444E-004
2	1	0	0	1.636299958663585E+001	-4.6888313E-001	-4.6891627E-001	7.882217610009601E-001	3.6961000E-004
2	1	0	0	1.641299958537275E+001	-4.6388096E-001	-4.6392915E-001	7.955362994364190E-001	3.6907248E-004
2	1	0	1	1.646309958410711E+001	-4.5887411E-001	-4.5891991E-001	8.020623114507526E-001	3.6808237E-004
2	1	0	1	1.651319958284148E+001	-4.5386258E-001	-4.5390388E-001	8.092926809093717E-001	3.6734110E-004
2	1	0	1	1.656319958157837E+001	-4.4886193E-001	-4.4890055E-001	8.166345020406318E-001	3.6658769E-004
2	1	0	1	1.661319958031527E+001	-4.4386420E-001	-4.4390023E-001	8.237148858791628E-001	3.6564723E-004
2	1	0	0	1.666339957904711E+001	-4.3884158E-001	-4.3887571E-001	8.306963342678291E-001	3.6457245E-004
2	1	0	0	1.671339957778400E+001	-4.3384287E-001	-4.3387848E-001	8.370503420185642E-001	3.6317814E-004
2	1	0	0	1.676339957652090E+001	-4.2884332E-001	-4.2887700E-001	8.440713285317306E-001	3.6200279E-004
2	1	0	1	1.681359957525274E+001	-4.2382064E-001	-4.2386022E-001	8.503047573512958E-001	3.6041037E-004
2	1	0	1	1.686359957398963E+001	-4.1882446E-001	-4.1886359E-001	8.554967277966981E-001	3.5833643E-004
2	1	0	1	1.691359957272653E+001	-4.1382232E-001	-4.1385105E-001	8.619001065913086E-001	3.5669826E-004
2	1	0	0	1.696369957146089E+001	-4.0881169E-001	-4.0883827E-001	8.668349912316740E-001	3.5439531E-004
2	1	0	0	1.701379957019526E+001	-4.0380371E-001	-4.0384090E-001	8.713983338556726E-001	3.5190629E-004
2	1	0	0	1.706379956893215E+001	-3.9880162E-001	-3.9884505E-001	8.775723521311152E-001	3.5001538E-004
2	1	0	1	1.711389956766652E+001	-3.9379287E-001	-3.9383373E-001	8.813926310177358E-001	3.4712214E-004
2	1	0	1	1.716399956640089E+001	-3.8878316E-001	-3.8882023E-001	8.865405805399691E-001	3.4470492E-004
2	1	0	1	1.721399956513778E+001	-3.8378069E-001	-3.8382497E-001	8.916943391947214E-001	3.4225456E-004
2	1	0	0	1.726409956387215E+001	-3.7877426E-001	-3.7881583E-001	8.958504138713792E-001	3.3936230E-004
2	1	0	0	1.731419956260652E+001	-3.7376213E-001	-3.7380299E-001	9.010760395594399E-001	3.3682492E-004
2	1	0	0	1.736419956134341E+001	-3.6876187E-001	-3.6880147E-001	9.050876752974979E-001	3.3379768E-004
2	1	0	0	1.741419956008031E+001	-3.6376348E-001	-3.6381656E-001	9.095044837068107E-001	3.3089280E-004
2	1	0	1	1.746439955881215E+001	-3.5874119E-001	-3.5879323E-001	9.142139313482289E-001	3.2801376E-004
2	1	0	1	1.751439955754904E+001	-3.5374326E-001	-3.5377526E-001	9.194487824683195E-001	3.2527823E-004
2	1	0	1	1.756439955628593E+001	-3.4874269E-001	-3.4877884E-001	9.242783751982240E-001	3.2236875E-004
2	1	0	0	1.761449955502030E+001	-3.4373069E-001	-3.4376165E-001	9.285153385855907E-001	3.1918797E-004
2	1	0	0	1.766459955375467E+001	-3.3872432E-001	-3.3875492E-001	9.325152819335507E-001	3.1589414E-004
2	1	0	0	1.771459955249156E+001	-3.3372197E-001	-3.3373898E-001	9.368411646279728E-001	3.1266041E-004
2	1	0	1	1.776469955122593E+001	-3.2871172E-001	-3.2873526E-001	9.401734244463889E-001	3.0906816E-004
2	1	0	1	1.781479954996030E+001	-3.2370362E-001	-3.2373771E-001	9.453385059946715E-001	3.0604174E-004
2	1	0	1	1.786479954869719E+001	-3.1870109E-001	-3.1874034E-001	9.482772480120731E-001	3.0225422E-004
2	1	0	0	1.791489954743156E+001	-3.1369311E-001	-3.1373432E-001	9.512619443722379E-001	2.9844351E-004
2	1	0	0	1.796499954616593E+001	-3.0868238E-001	-3.0872768E-001	9.552389513763888E-001	2.9490871E-004
2	1	0	0	1.801499954490282E+001	-3.0368075E-001	-3.0371439E-001	9.579314800797629E-001	2.9093758E-004
2	1	0	0	1.806499954363971E+001	-2.9868397E-001	-2.9872590E-001	9.633468378235981E-001	2.8777667E-004
2	1	0	1	1.811519954237156E+001	-2.9366180E-001	-2.9368225E-001	9.658446332573829E-001	2.8365143E-004
2	1	0	1	1.816519954110845E+001	-2.8866208E-001	-2.8869969E-001	9.673642242532132E-001	2.7927774E-004
2	1	0	1	1.821519953984534E+001	-2.8366309E-001	-2.8370836E-001	9.702699499512235E-001	2.7527369E-004
2	1	0	0	1.826539953857719E+001	-2.7864107E-001	-2.7866837E-001	9.736366988133600E-001	2.7132177E-004
2	1	0	0	1.831539953731408E+001	-2.7364331E-001	-2.7367473E-001	9.757999505873478E-001	2.6705177E-004
2	1	0	0	1.836539953605097E+001	-2.6864228E-001	-2.6867676E-001	9.781330404402659E-001	2.6280162E-004
2	1	0	1	1.841549953478534E+001	-2.6363060E-001	-2.6366475E-001	9.795515508750523E-001	2.5827321E-004
2	1	0	1	1.846559953351971E+001	-2.5862402E-001	-2.5865299E-001	9.820032200675541E-001	2.5399806E-004
2	1	0	1	1.851559953225660E+001	-2.5362149E-001	-2.5366780E-001	9.849356066908932E-001	2.4984646E-004
2	1	0	0	1.856569953099097E+001	-2.4861217E-001	-2.4866368E-001	9.865518159876681E-001	2.4531959E-004
2	1	0	0	1.861579952972534E+001	-2.4360301E-001	-2.4367158E-001	9.889711470203011E-001	2.4098417E-004
2	1	0	0	1.866579952846223E+001	-2.3860079E-001	-2.3866606E-001	9.911391240822063E-001	2.3655126E-004
2	1	0	1	1.871589952719660E+001	-2.3359321E-001	-2.3365356E-001	9.934776863903476E-001	2.3212961E-004
2	1	0	1	1.876599952593097E+001	-2.2858235E-001	-2.2864026E-001	9.959462320805181E-001	2.2771340E-004
2	1	0	1	1.881599952466786E+001	-2.2358087E-001	-2.2364883E-001	9.970921705500828E-001	2.2299850E-004
2	1	0	1	1.886599952340475E+001	-2.1858372E-001	-2.1865657E-001	9.992972922020940E-001	2.1850292E-004
2	1	0	0	1.891619952213659E+001	-2.1356137E-001	-2.1361919E-001	1.001496057636047E+000	2.1393878E-004
2	1	0	0	1.896619952087349E+001	-2.0856231E-001	-2.0863199E-001	1.003240482384419E+000	2.0930805E-004
2	1	0	0	1.901619951961038E+001	-2.0356292E-001	-2.0362580E-001	1.005147829601780E+000	2.0467403E-004
2	1	0	1	1.906639951834222E+001	-1.9854060E-001	-1.9860066E-001	1.009288331532243E+000	2.0044533E-004
2	1	0	1	1.911639951707912E+001	-1.9354355E-001	-1.9360417E-001	1.011824742528201E+000	1.9589349E-004
2	1	0	1	1.916639951581601E+001	-1.8854195E-001	-1.8859792E-001	1.014078017672219E+000	1.9125300E-004
2	1	0	0	1.921649951455038E+001	-1.8353108E-001	-1.8359812E-001	1.015675635738489E+000	1.8647613E-004
2	1	0	0	1.928159951290581E+001	-1.7702200E-001	-1.7707746E-001	1.022137382250857E+000	1.8099749E-004
2	1	0	0	1.934659951126378E+001	-1.7052330E-001	-1.7062119E-001	1.020860424950007E+000	1.7418042E-004
2	1	0	1	1.939679950999562E+001	-1.6550118E-001	-1.6558740E-001	1.022721198583682E+000	1.6934973E-004
2	1	0	1	1.944679950873251E+001	-1.6050223E-001	-1.6058983E-001	1.025113463002181E+000	1.6462279E-004
2	1	0	1	1.949679950746940E+001	-1.5550260E-001	-1.5557632E-001	1.025894169143031E+000	1.5960484E-004
2	1	0	0	1.954699950620125E+001	-1.5048030E-001	-1.5055937E-001	1.026843274870622E+000	1.5460087E-004
2	1	0	0	1.959699950493814E+001	-1.4548357E-001	-1.4556424E-001	1.028826740966895E+000	1.4976038E-004
2	1	0	0	1.964699950367503E+001	-1.4048171E-001	-1.4054805E-001	1.029467021076339E+000	1.4468958E-004
2	1	0	1	1.969709950240940E+001	-1.3547106E-001	-1.3551630E-001	1.030753271432125E+000	1.3968386E-004
2	1	0	1	1.974719950114377E+001	-1.3046345E-001	-1.3052350E-001	1.032110305257060E+000	1.3471465E-004
2	1	0	1	1.979719949988066E+001	-1.2546094E-001	-1.2553041E-001	1.033039445715031E+000	1.2967786E-004
2	1	0	0	1.984729949861503E+001	-1.2045241E-001	-1.2050910E-001	1.033633946928788E+000	1.2456230E-004
2	1	0	0	1.989739949734940E+001	-1.1544256E-001	-1.1550028E-001	1.034861699635142E+000	1.1952681E-004
2	1	0	0	1.994739949608629E+001	-1.1043995E-001	-1.1051381E-001	1.034932022280282E+000	1.1437428E-004
2	1	0	1	1.999749949482066E+001	-1.0543360E-001	-1.0549805E-001	1.036739265862316E+000	1.0937396E-004
2	1	0	1	2.004759949355503E+001	-1.0042171E-001	-1.0047932E-001	1.038649328184763E+000	1.0436278E-004
2	1	0	1	2.009759949229192E+001	-9.5421076E-002	-9.5472172E-002	1.040701975875422E+000	9.9358076E-005
2	1	0	1	2.014759949102881E+001	-9.0423189E-002	-9.0481743E-002	1.042417286255570E+000	9.4319730E-005
2	1	0	0	2.019779948976066E+001	-8.5400768E-002	-8.5463285E-002	1.043466842375643E+000	8.9178102E-005
2	1	0	0	2.024779948849755E+001	-8.0402337E-002	-8.0470711E-002	1.043651190263759E+000	8.3983352E-005
2	1	0	0	2.029779948723444E+001	-7.5402208E-002	-7.5456627E-002	1.045280925078678E+000	7.8873374E-005
2	1	0	1	2.034789948596881E+001	-7.0389889E-002	-7.0437931E-002	1.045898063513992E+000	7.3670897E-005
2	1	0	1	2.039799948470318E+001	-6.5383628E-002	-6.5450765E-002	1.047428644745757E+000	6.8555004E-005
2	1	0	1	2.044799948344007E+001	-6.0381472E-002	-6.0448490E-002	1.048441168633107E+000	6.3376683E-005
2	1	0	0	2.049809948217444E+001	-5.5371176E-002	-5.5432823E-002	1.048741686267879E+000	5.8134712E-005
2	1	0	0	2.054819948090881E+001	-5.0362915E-002	-5.0429735E-002	1.050060261229349E+000	5.2954259E-005
2	1	0	0	2.059819947964570E+001	-4.5360524E-002	-4.5411851E-002	1.050830104471551E+000	4.7720139E-005
2	1	0	1	2.064829947838007E+001	-4.0352467E-002	-4.0412739E-002	1.052375437076919E+000	4.2529373E-005
2	1	0	1	2.069839947711444E+001	-3.5342202E-002	-3.5403997E-002	1.052749663151415E+000	3.7271544E-005
2	1	0	1	2.074839947585133E+001	-3.0339990E-002	-3.0397698E-002	1.053261539824980E+000	3.2016727E-005
2	1	0	1	2.079839947458822E+001	-2.5343653E-002	-2.5410274E-002	1.053657068541762E+000	2.6773714E-005
2	1	0	0	2.084859947332006E+001	-2.0321259E-002	-2.0369047E-002	1.055116511670441E+000	2.1491718E-005
2	1	0	0	2.089859947205696E+001	-1.5321273E-002	-1.5367568E-002	1.055348970979272E+000	1.6218146E-005
2	1	0	0	2.094859947079385E+001	-1.0322704E-002	-1.0397729E-002	1.055932308077178E+000	1.0979298E-005
2	1	0	1	2.099879946952569E+001	-5.3003137E-003	-5.3728381E-003	1.056349411576148E+000	5.6755944E-006
2	1	0	1	2.104879946826259E+001	-3.0255321E-004	-3.7374219E-004	1.056776436241684E+000	3.9496194E-007
2	1	0	1	2.109879946699948E+001	4.6980185E-003	4.6122069E-003	1.058356433557305E+000	4.8813590E-006
2	1	0	0	2.114889946573385E+001	9.7098900E-003	9.6294489E-003	1.059215071924711E+000	1.0199657E-005
2	1	0	0	2.119899946446822E+001	1.4716511E-002	1.4649590E-002	1.059900902937709E+000	1.5527114E-005
2	1	0	0	2.124899946320511E+001	1.9718898E-002	1.9662607E-002	1.060470795256386E+000	2.0851621E-005
2	1	0	1	2.129909946193948E+001	2.4728544E-002	2.4649879E-002	1.061577767008984E+000	2.6167763E-005
2	1	0	1	2.134919946067384E+001	2.9737379E-002	2.9664678E-002	1.061297515480456E+000	3.1483050E-005
2	1	0	1	2.139919945941074E+001	3.4739550E-002	3.4667019E-002	1.062142498738033E+000	3.6821315E-005
2	1	0	0	2.144929945814511E+001	3.9747208E-002	3.9675973E-002	1.063825258879613E+000	4.2208303E-005
2	1	0	0	2.149939945687947E+001	4.4758081E-002	4.4688202E-002	1.064882979748650E+000	4.7587706E-005
2	1	0	0	2.154939945561637E+001	4.9759638E-002	4.9685072E-002	1.064940467424597E+000	5.2911644E-005
2	1	0	0	2.159939945435326E+001	5.4756582E-002	5.4692078E-002	1.065329057813875E+000	5.8265061E-005
2	1	0	1	2.164959945308510E+001	5.9778955E-002	5.9720468E-002	1.065821976919473E+000	6.3651387E-005
2	1	0	1	2.169959945182200E+001	6.4778276E-002	6.4730309E-002	1.065466629582228E+000	6.8967987E-005
2	1	0	1	2.174959945055889E+001	6.9777265E-002	6.9717072E-002	1.065514291964309E+000	7.4284537E-005
2	1	0	0	2.179979944929073E+001	7.4799791E-002	7.4740402E-002	1.066703286458509E+000	7.9725833E-005
2	1	0	0	2.184979944802762E+001	7.9796910E-002	7.9741716E-002	1.067262142887280E+000	8.5105312E-005
2	1	0	0	2.189979944676452E+001	8.4798105E-002	8.4734946E-002	1.066614977901839E+000	9.0379566E-005
2	1	0	1	2.194989944549889E+001	8.9809284E-002	8.9750499E-002	1.067137449324669E+000	9.5776115E-005
2	1	0	1	2.199999944423325E+001	9.4816588E-002	9.4761305E-002	1.067512613015200E+000	1.0115889E-004
2	1	0	1	2.203819944326824E+001	9.8640420E-002	9.8582357E-002	1.068500535230116E+000	1.0533530E-004
2	1	0	0	2.205179944292468E+001	9.9997252E-002	9.9975102E-002	1.082124948501587E+000	1.0818555E-004