EC-Lab ASCII FILE
Nb header lines : 55                          

I-V Characterization

Run on channel : 1 (SN 6514)
User : 
CE vs. WE compliance from -10 V to 10 V
Electrode connection : standard
Ewe ctrl range : min = -1.10 V, max = 0.20 V
Safety Limits :
	Do not start on E overload
Acquisition started on : 06/15/2016 19:03:14
Saved on :
	File : B125-G54-UN-G-D1GB-C14 BW 100mVs_02_IVC_C01.mpr
	Directory : E:\EC-Lab measurements\B125-G54-UN-G-D1GB\
	Host : 10.0.2.15
Device : VSP (SN 0295)
Address : USB
EC-Lab for windows v11.01 (software)
Internet server v11.00 (firmware)
Command interpretor v11.00 (firmware)
Electrode material : 
Initial state : 
Electrolyte : 
Comments : 
Electrode surface area : 0.001 cm²
Characteristic mass : 0.001 g
Equivalent Weight : 0.000 g/eq.
Density : 0.000 g/cm3
tR (h:m:s)          0:00:0.0000         
dER/dt (mV/h)       0.0                 
dER (mV)            0                   
dtR (s)             0.0000              
dE/dt               100.000             
dE/dt unit          mV/s                
Ei (V)              -1.000              
vs.                 Ref                 
EL (V)              0.100               
vs.                 Ref                 
record              <I>                 
dI                  0.000               
unit dI             µA                  
tI (s)              0.1000              
step percent        100                 
N                   100                 
E range min (V)     -1.100              
E range max (V)     0.200               
I Range             Auto                
I Range min         Unset               
I Range max         Unset               
I Range init        Unset               
Bandwidth           5                   

mode	ox/red	error	control changes	time/s	control/V	Ewe/V	<I>/mA	P/W
2	1	0	1	1.105119972082321E+001	-1.0000715E+000	-1.0928357E+000	-3.156241029500961E-002	3.4492528E-005
2	1	0	1	1.107639972018660E+001	-9.9754560E-001	-9.9762362E-001	-1.169273377099469E+000	1.1664948E-003
2	1	0	1	1.112639971892349E+001	-9.9254352E-001	-9.9263674E-001	-1.166043421947979E+000	1.1574576E-003
2	1	0	0	1.117649971765786E+001	-9.8753279E-001	-9.8763448E-001	-1.164794231951594E+000	1.1503909E-003
2	1	0	0	1.122659971639223E+001	-9.8252517E-001	-9.8264092E-001	-1.167255640867000E+000	1.1469931E-003
2	1	0	0	1.127659971512912E+001	-9.7752255E-001	-9.7763485E-001	-1.165696623303545E+000	1.1396257E-003
2	1	0	1	1.132669971386349E+001	-9.7251463E-001	-9.7262377E-001	-1.164914847836735E+000	1.1330239E-003
2	1	0	1	1.137679971259786E+001	-9.6750438E-001	-9.6760571E-001	-1.164033158732650E+000	1.1263251E-003
2	1	0	1	1.142679971133475E+001	-9.6250188E-001	-9.6259403E-001	-1.163940675028399E+000	1.1204024E-003
2	1	0	0	1.147689971006912E+001	-9.5749539E-001	-9.5756453E-001	-1.161927597143817E+000	1.1126207E-003
2	1	0	0	1.152699970880349E+001	-9.5248336E-001	-9.5256740E-001	-1.157979623888352E+000	1.1030537E-003
2	1	0	0	1.157699970754038E+001	-9.4748324E-001	-9.4759023E-001	-1.150060632632227E+000	1.0897862E-003
2	1	0	0	1.162699970627727E+001	-9.4248497E-001	-9.4259340E-001	-1.140429121899027E+000	1.0749609E-003
2	1	0	1	1.167719970500912E+001	-9.3746281E-001	-9.3757045E-001	-1.128845008333904E+000	1.0583717E-003
2	1	0	1	1.172719970374601E+001	-9.3246454E-001	-9.3256778E-001	-1.112509518100355E+000	1.0374906E-003
2	1	0	1	1.177719970248290E+001	-9.2746383E-001	-9.2757010E-001	-1.093183652542885E+000	1.0140045E-003
2	1	0	0	1.182729970121727E+001	-9.2245185E-001	-9.2255199E-001	-1.068039317638561E+000	9.8532182E-004
2	1	0	0	1.187739969995164E+001	-9.1744572E-001	-9.1753012E-001	-1.038215176428286E+000	9.5259369E-004
2	1	0	0	1.192739969868853E+001	-9.1244298E-001	-9.1255093E-001	-1.004790315700562E+000	9.1692235E-004
2	1	0	1	1.197749969742290E+001	-9.0743369E-001	-9.0753591E-001	-9.682368152647802E-001	8.7870966E-004
2	1	0	1	1.202759969615727E+001	-9.0242475E-001	-9.0252692E-001	-9.278502775683357E-001	8.3740987E-004
2	1	0	1	1.207759969489416E+001	-8.9742237E-001	-8.9752144E-001	-8.849296754148295E-001	7.9424336E-004
2	1	0	0	1.212769969362853E+001	-8.9241433E-001	-8.9251870E-001	-8.387779365290342E-001	7.4862497E-004
2	1	0	0	1.217779969236290E+001	-8.8740402E-001	-8.8751012E-001	-7.911031998700722E-001	7.0211210E-004
2	1	0	0	1.222779969109979E+001	-8.8240182E-001	-8.8248503E-001	-7.418038489497860E-001	6.5463077E-004
2	1	0	0	1.227779968983668E+001	-8.7740558E-001	-8.7750411E-001	-6.913123995779600E-001	6.0662947E-004
2	1	0	1	1.232799968856853E+001	-8.7238306E-001	-8.7250292E-001	-6.398539314455043E-001	5.5827445E-004
2	1	0	1	1.237799968730542E+001	-8.6738336E-001	-8.6751121E-001	-5.892875618587610E-001	5.1121356E-004
2	1	0	1	1.242799968604231E+001	-8.6238432E-001	-8.6249465E-001	-5.388163806636097E-001	4.6472624E-004
2	1	0	0	1.247819968477415E+001	-8.5736227E-001	-8.5747558E-001	-4.890516815088599E-001	4.1934988E-004
2	1	0	0	1.254319968313212E+001	-8.5086340E-001	-8.5093069E-001	-4.268809207111510E-001	3.6324607E-004
2	1	0	1	1.260829968148755E+001	-8.4435493E-001	-8.4440506E-001	-3.652803517565992E-001	3.0844458E-004
2	1	0	1	1.265839968022192E+001	-8.3934373E-001	-8.3939976E-001	-3.197911852700406E-001	2.6843263E-004
2	1	0	1	1.270839967895881E+001	-8.3434212E-001	-8.3440697E-001	-2.759261356274840E-001	2.3023470E-004
2	1	0	1	1.275839967769571E+001	-8.2934469E-001	-8.2941580E-001	-2.334072946645742E-001	1.9359170E-004
2	1	0	0	1.280859967642755E+001	-8.2432306E-001	-8.2438391E-001	-1.918038025438742E-001	1.5811998E-004
2	1	0	0	1.285859967516444E+001	-8.1932330E-001	-8.1937790E-001	-1.517470596152852E-001	1.2433818E-004
2	1	0	0	1.290859967390134E+001	-8.1432444E-001	-8.1438190E-001	-1.130321385353048E-001	9.2051327E-005
2	1	0	1	1.295879967263318E+001	-8.0930209E-001	-8.0935901E-001	-7.545427744562550E-002	6.1069601E-005
2	1	0	1	1.300879967137007E+001	-8.0430478E-001	-8.0434692E-001	-3.948769822215115E-002	3.1761807E-005
2	1	0	1	1.305879967010696E+001	-7.9930335E-001	-7.9935551E-001	-4.625420112698564E-003	3.6973549E-006
2	1	0	0	1.310889966884133E+001	-7.9429215E-001	-7.9432881E-001	2.923496068933542E-002	2.3222172E-005
2	1	0	0	1.315899966757570E+001	-7.8928506E-001	-7.8932554E-001	6.178916491921715E-002	4.8771766E-005
2	1	0	0	1.320899966631259E+001	-7.8428245E-001	-7.8431290E-001	9.307503580547416E-002	7.2999952E-005
2	1	0	1	1.325909966504696E+001	-7.7927381E-001	-7.7930945E-001	1.233684108946469E-001	9.6142168E-005
2	1	0	1	1.330919966378133E+001	-7.7426416E-001	-7.7430165E-001	1.528092750537282E-001	1.1832047E-004
2	1	0	1	1.335919966251822E+001	-7.6926172E-001	-7.6931304E-001	1.813068591207401E-001	1.3948174E-004
2	1	0	0	1.340929966125259E+001	-7.6425469E-001	-7.6428944E-001	2.089934423440991E-001	1.5973148E-004
2	1	0	0	1.345939965998696E+001	-7.5924343E-001	-7.5928503E-001	2.355231025703908E-001	1.7882917E-004
2	1	0	0	1.350939965872385E+001	-7.5424206E-001	-7.5426769E-001	2.613649141126886E-001	1.9713912E-004
2	1	0	0	1.355939965746074E+001	-7.4924511E-001	-7.4927443E-001	2.861830809906110E-001	2.1442966E-004
2	1	0	1	1.360959965619259E+001	-7.4422246E-001	-7.4423975E-001	3.100010771891182E-001	2.3071513E-004
2	1	0	1	1.365959965492948E+001	-7.3922360E-001	-7.3924142E-001	3.333655127528594E-001	2.4643759E-004
2	1	0	1	1.370959965366637E+001	-7.3422378E-001	-7.3424584E-001	3.561888944286712E-001	2.6153022E-004
2	1	0	0	1.375979965239821E+001	-7.2920173E-001	-7.2924060E-001	3.784796675006614E-001	2.7600274E-004
2	1	0	0	1.380979965113511E+001	-7.2420466E-001	-7.2423720E-001	3.996191053588456E-001	2.8941903E-004
2	1	0	0	1.385979964987200E+001	-7.1920311E-001	-7.1922880E-001	4.197600350237423E-001	3.0190352E-004
2	1	0	1	1.390989964860637E+001	-7.1419257E-001	-7.1423393E-001	4.400459142025159E-001	3.1429573E-004
2	1	0	1	1.395999964734074E+001	-7.0918453E-001	-7.0922750E-001	4.594177638998329E-001	3.2583170E-004
2	1	0	1	1.400999964607763E+001	-7.0418221E-001	-7.0420498E-001	4.779346914037579E-001	3.3656400E-004
2	1	0	0	1.406009964481200E+001	-6.9917357E-001	-6.9920099E-001	4.963642752522963E-001	3.4705841E-004
2	1	0	0	1.411019964354637E+001	-6.9416344E-001	-6.9419932E-001	5.132949291296720E-001	3.5632899E-004
2	1	0	0	1.416019964228326E+001	-6.8916112E-001	-6.8918997E-001	5.299119869119160E-001	3.6521003E-004
2	1	0	1	1.421029964101763E+001	-6.8415511E-001	-6.8416816E-001	5.463575719715728E-001	3.7380046E-004
2	1	0	1	1.426039963975200E+001	-6.7914283E-001	-6.7916977E-001	5.626046584231705E-001	3.8210407E-004
2	1	0	1	1.431039963848889E+001	-6.7414266E-001	-6.7417389E-001	5.776944731190752E-001	3.8946653E-004
2	1	0	1	1.436039963722578E+001	-6.6914415E-001	-6.6918027E-001	5.929277567665499E-001	3.9677555E-004
2	1	0	0	1.441059963595762E+001	-6.6412181E-001	-6.6414601E-001	6.072888332625723E-001	4.0332845E-004
2	1	0	0	1.446059963469452E+001	-6.5912348E-001	-6.5915602E-001	6.218205235541161E-001	4.0987675E-004
2	1	0	0	1.451059963343141E+001	-6.5412354E-001	-6.5416247E-001	6.353599609924903E-001	4.1562863E-004
2	1	0	1	1.456069963216578E+001	-6.4911133E-001	-6.4915425E-001	6.489919175380763E-001	4.2129584E-004
2	1	0	1	1.461079963090015E+001	-6.4410502E-001	-6.4413917E-001	6.623843389219841E-001	4.2666768E-004
2	1	0	1	1.466079962963704E+001	-6.3910270E-001	-6.3916367E-001	6.749870441763335E-001	4.3142721E-004
2	1	0	0	1.471089962837141E+001	-6.3409251E-001	-6.3415247E-001	6.879932082838973E-001	4.3629258E-004
2	1	0	0	1.476099962710578E+001	-6.2908375E-001	-6.2915450E-001	6.995449140899650E-001	4.4012183E-004
2	1	0	0	1.481099962584267E+001	-6.2408143E-001	-6.2414366E-001	7.112195253098754E-001	4.4390315E-004
2	1	0	1	1.486109962457704E+001	-6.1907399E-001	-6.1913043E-001	7.228105292264750E-001	4.4751400E-004
2	1	0	1	1.491119962331140E+001	-6.1406314E-001	-6.1412859E-001	7.329146003357572E-001	4.5010381E-004
2	1	0	1	1.496119962204830E+001	-6.0906154E-001	-6.0912740E-001	7.440200167926001E-001	4.5320299E-004
2	1	0	1	1.501119962078519E+001	-6.0406476E-001	-6.0411483E-001	7.548768866775433E-001	4.5603231E-004
2	1	0	0	1.506139961951703E+001	-5.9904218E-001	-5.9909642E-001	7.641098069372063E-001	4.5777546E-004
2	1	0	0	1.511139961825393E+001	-5.9404230E-001	-5.9410137E-001	7.737349476884390E-001	4.5967699E-004
2	1	0	0	1.516139961699082E+001	-5.8904409E-001	-5.8910185E-001	7.822765673905827E-001	4.6084059E-004
2	1	0	1	1.521159961572266E+001	-5.8402151E-001	-5.8408093E-001	7.903371037832923E-001	4.6162083E-004
2	1	0	1	1.526159961445956E+001	-5.7902402E-001	-5.7908082E-001	7.994327818085019E-001	4.6293618E-004
2	1	0	1	1.531159961319645E+001	-5.7402313E-001	-5.7409716E-001	8.081918503567911E-001	4.6398066E-004
2	1	0	0	1.536169961193082E+001	-5.6901139E-001	-5.6907165E-001	8.156409621460039E-001	4.6415816E-004
2	1	0	0	1.541179961066518E+001	-5.6400424E-001	-5.6406820E-001	8.231942106710575E-001	4.6433767E-004
2	1	0	0	1.546179960940208E+001	-5.5900210E-001	-5.5907834E-001	8.313802782016335E-001	4.6480671E-004
2	1	0	1	1.551189960813645E+001	-5.5399269E-001	-5.5406016E-001	8.377283321770301E-001	4.6415190E-004
2	1	0	1	1.556199960687081E+001	-5.4898393E-001	-5.4903930E-001	8.444697736529232E-001	4.6364710E-004
2	1	0	1	1.561199960560771E+001	-5.4398167E-001	-5.4404038E-001	8.512382186737888E-001	4.6310798E-004
2	1	0	0	1.566209960434207E+001	-5.3897405E-001	-5.3902817E-001	8.569352863244681E-001	4.6191225E-004
2	1	0	0	1.571219960307644E+001	-5.3396267E-001	-5.3402179E-001	8.639892641081381E-001	4.6138911E-004
2	1	0	0	1.576219960181334E+001	-5.2896130E-001	-5.2902371E-001	8.709626472880672E-001	4.6075988E-004
2	1	0	0	1.581219960055023E+001	-5.2396452E-001	-5.2402300E-001	8.775713260693028E-001	4.5986756E-004
2	1	0	1	1.586239959928207E+001	-5.1894206E-001	-5.1900244E-001	8.824311760714316E-001	4.5798393E-004
2	1	0	1	1.591239959801896E+001	-5.1394308E-001	-5.1401389E-001	8.868879914560530E-001	4.5587274E-004
2	1	0	1	1.596239959675586E+001	-5.0894368E-001	-5.0899380E-001	8.917484956991411E-001	4.5389446E-004
2	1	0	0	1.601259959548770E+001	-5.0392109E-001	-5.0396949E-001	8.966612173870483E-001	4.5188991E-004
2	1	0	0	1.606259959422459E+001	-4.9892381E-001	-4.9897957E-001	9.007940383979278E-001	4.4947781E-004
2	1	0	0	1.611259959296149E+001	-4.9392283E-001	-4.9398208E-001	9.048513344139337E-001	4.4698035E-004
2	1	0	1	1.616269959169585E+001	-4.8891145E-001	-4.8895872E-001	9.095053919952463E-001	4.4471057E-004
2	1	0	1	1.621279959043022E+001	-4.8390430E-001	-4.8395219E-001	9.149247084766969E-001	4.4277983E-004
2	1	0	1	1.626279958916712E+001	-4.7890207E-001	-4.7893855E-001	9.192031610917510E-001	4.4024183E-004
2	1	0	0	1.631289958790148E+001	-4.7389287E-001	-4.7393087E-001	9.240363653734960E-001	4.3792935E-004
2	1	0	0	1.636299958663585E+001	-4.6888313E-001	-4.6892124E-001	9.273587115402009E-001	4.3485820E-004
2	1	0	0	1.641299958537275E+001	-4.6388096E-001	-4.6391186E-001	9.316214375490368E-001	4.3219022E-004
2	1	0	1	1.646309958410711E+001	-4.5887411E-001	-4.5890641E-001	9.365848734671509E-001	4.2980482E-004
2	1	0	1	1.651319958284148E+001	-4.5386258E-001	-4.5390421E-001	9.395828030663065E-001	4.2648060E-004
2	1	0	1	1.656319958157837E+001	-4.4886193E-001	-4.4889364E-001	9.433860443510653E-001	4.2348000E-004
2	1	0	1	1.661319958031527E+001	-4.4386420E-001	-4.4389477E-001	9.478015421047434E-001	4.2072416E-004
2	1	0	0	1.666339957904711E+001	-4.3884158E-001	-4.3886393E-001	9.508641016433828E-001	4.1729995E-004
2	1	0	0	1.671339957778400E+001	-4.3384287E-001	-4.3388340E-001	9.537931982098229E-001	4.1383505E-004
2	1	0	0	1.676339957652090E+001	-4.2884332E-001	-4.2887264E-001	9.572928800336555E-001	4.1055674E-004
2	1	0	1	1.681359957525274E+001	-4.2382064E-001	-4.2384952E-001	9.607796878078485E-001	4.0722601E-004
2	1	0	1	1.686359957398963E+001	-4.1882446E-001	-4.1885343E-001	9.632411067613997E-001	4.0345686E-004
2	1	0	1	1.691359957272653E+001	-4.1382232E-001	-4.1385904E-001	9.653210854974663E-001	3.9950685E-004
2	1	0	0	1.696369957146089E+001	-4.0881169E-001	-4.0883103E-001	9.684595370092897E-001	3.9593631E-004
2	1	0	0	1.701379957019526E+001	-4.0380371E-001	-4.0384781E-001	9.707725451738565E-001	3.9204437E-004
2	1	0	0	1.706379956893215E+001	-3.9880162E-001	-3.9883119E-001	9.732146687684953E-001	3.8814836E-004
2	1	0	1	1.711389956766652E+001	-3.9379287E-001	-3.9382717E-001	9.766737001045840E-001	3.8464065E-004
2	1	0	1	1.716399956640089E+001	-3.8878316E-001	-3.8881421E-001	9.779605352180969E-001	3.8024495E-004
2	1	0	1	1.721399956513778E+001	-3.8378069E-001	-3.8381514E-001	9.796568421022407E-001	3.7600714E-004
2	1	0	0	1.726409956387215E+001	-3.7877426E-001	-3.7881145E-001	9.820037728314510E-001	3.7199428E-004
2	1	0	0	1.731419956260652E+001	-3.7376213E-001	-3.7380359E-001	9.840091165306823E-001	3.6782614E-004
2	1	0	0	1.736419956134341E+001	-3.6876187E-001	-3.6880133E-001	9.856706693883268E-001	3.6351665E-004
2	1	0	0	1.741419956008031E+001	-3.6376348E-001	-3.6380321E-001	9.883762348665019E-001	3.5957445E-004
2	1	0	1	1.746439955881215E+001	-3.5874119E-001	-3.5877571E-001	9.913507467455069E-001	3.5567256E-004
2	1	0	1	1.751439955754904E+001	-3.5374326E-001	-3.5378021E-001	9.934212125638240E-001	3.5145276E-004
2	1	0	1	1.756439955628593E+001	-3.4874269E-001	-3.4877136E-001	9.955487818909787E-001	3.4721891E-004
2	1	0	0	1.761449955502030E+001	-3.4373069E-001	-3.4374878E-001	9.984869513536392E-001	3.4322866E-004
2	1	0	0	1.766459955375467E+001	-3.3872432E-001	-3.3875442E-001	9.992968261170692E-001	3.3851620E-004
2	1	0	0	1.771459955249156E+001	-3.3372197E-001	-3.3374345E-001	1.001288178874450E+000	3.3417338E-004
2	1	0	1	1.776469955122593E+001	-3.2871172E-001	-3.2872605E-001	1.003808120976997E+000	3.2997789E-004
2	1	0	1	1.781479954996030E+001	-3.2370362E-001	-3.2374990E-001	1.004748922170625E+000	3.2528737E-004
2	1	0	1	1.786479954869719E+001	-3.1870109E-001	-3.1875029E-001	1.005909678472410E+000	3.2063399E-004
2	1	0	0	1.791489954743156E+001	-3.1369311E-001	-3.1373003E-001	1.007709953544973E+000	3.1614889E-004
2	1	0	0	1.796499954616593E+001	-3.0868238E-001	-3.0871835E-001	1.010615484639759E+000	3.1199554E-004
2	1	0	0	1.801499954490282E+001	-3.0368075E-001	-3.0371964E-001	1.010996675991626E+000	3.0705956E-004
2	1	0	0	1.806499954363971E+001	-2.9868397E-001	-2.9872465E-001	1.012457518425590E+000	3.0244602E-004
2	1	0	1	1.811519954237156E+001	-2.9366180E-001	-2.9369497E-001	1.013671782817866E+000	2.9771030E-004
2	1	0	1	1.816519954110845E+001	-2.8866208E-001	-2.8870538E-001	1.015487824511602E+000	2.9317680E-004
2	1	0	1	1.821519953984534E+001	-2.8366309E-001	-2.8369877E-001	1.016797767087755E+000	2.8846427E-004
2	1	0	0	1.826539953857719E+001	-2.7864107E-001	-2.7866304E-001	1.017347915084629E+000	2.8349727E-004
2	1	0	0	1.833039953693515E+001	-2.7214253E-001	-2.7222529E-001	1.024524885288301E+000	2.7890157E-004
2	1	0	1	1.839549953529058E+001	-2.6563311E-001	-2.6572579E-001	1.021615131523777E+000	2.7146950E-004
2	1	0	1	1.844559953402495E+001	-2.6062253E-001	-2.6071140E-001	1.024003182735022E+000	2.6696929E-004
2	1	0	1	1.849559953276184E+001	-2.5562084E-001	-2.5568226E-001	1.025482085809793E+000	2.6219757E-004
2	1	0	1	1.854559953149874E+001	-2.5062382E-001	-2.5069833E-001	1.026696100543758E+000	2.5739099E-004
2	1	0	0	1.859579953023058E+001	-2.4560148E-001	-2.4569596E-001	1.026928805235437E+000	2.5231225E-004
2	1	0	0	1.864579952896747E+001	-2.4060221E-001	-2.4071601E-001	1.027966005866920E+000	2.4744787E-004
2	1	0	0	1.869579952770437E+001	-2.3560303E-001	-2.3570824E-001	1.028661958150076E+000	2.4246410E-004
2	1	0	1	1.874599952643621E+001	-2.3058069E-001	-2.3068625E-001	1.028476448653597E+000	2.3725537E-004
2	1	0	1	1.879599952517310E+001	-2.2558349E-001	-2.2567619E-001	1.027903911391014E+000	2.3197345E-004
2	1	0	1	1.884599952391000E+001	-2.2058208E-001	-2.2068042E-001	1.028537186122424E+000	2.2697801E-004
2	1	0	0	1.889609952264436E+001	-2.1557103E-001	-2.1567495E-001	1.028747294561308E+000	2.2187502E-004
2	1	0	0	1.894619952137873E+001	-2.1056373E-001	-2.1066508E-001	1.028300784712913E+000	2.1662706E-004
2	1	0	0	1.899619952011562E+001	-2.0556125E-001	-2.0567307E-001	1.029792989474952E+000	2.1180068E-004
2	1	0	1	1.904629951884999E+001	-2.0055202E-001	-2.0066410E-001	1.032118118944055E+000	2.0710906E-004
2	1	0	1	1.909639951758436E+001	-1.9554293E-001	-1.9563989E-001	1.032934929566581E+000	2.0208328E-004
2	1	0	1	1.914639951632125E+001	-1.9054043E-001	-1.9063187E-001	1.034841268737409E+000	1.9727372E-004
2	1	0	0	1.919649951505562E+001	-1.8553349E-001	-1.8563086E-001	1.036842860455550E+000	1.9247003E-004
2	1	0	0	1.924659951378999E+001	-1.8052201E-001	-1.8061553E-001	1.038357247452035E+000	1.8754344E-004
2	1	0	0	1.929659951252688E+001	-1.7552087E-001	-1.7561236E-001	1.039624591032558E+000	1.8257093E-004
2	1	0	0	1.934659951126378E+001	-1.7052330E-001	-1.7061152E-001	1.038831389257552E+000	1.7723659E-004
2	1	0	1	1.939679950999562E+001	-1.6550118E-001	-1.6557553E-001	1.039053195592110E+000	1.7204179E-004
2	1	0	1	1.944679950873251E+001	-1.6050223E-001	-1.6059390E-001	1.039658816873356E+000	1.6696285E-004
2	1	0	1	1.949679950746940E+001	-1.5550260E-001	-1.5557514E-001	1.039750958565381E+000	1.6175940E-004
2	1	0	0	1.954699950620125E+001	-1.5048030E-001	-1.5055381E-001	1.039680838225331E+000	1.5652791E-004
2	1	0	0	1.959699950493814E+001	-1.4548357E-001	-1.4555888E-001	1.041462275627717E+000	1.5159408E-004
2	1	0	0	1.964699950367503E+001	-1.4048171E-001	-1.4054771E-001	1.043012709757431E+000	1.4659304E-004
2	1	0	1	1.969709950240940E+001	-1.3547106E-001	-1.3551426E-001	1.044837319678940E+000	1.4159035E-004
2	1	0	1	1.974719950114377E+001	-1.3046345E-001	-1.3050739E-001	1.046097426605792E+000	1.3652345E-004
2	1	0	1	1.979719949988066E+001	-1.2546094E-001	-1.2550876E-001	1.046072136843281E+000	1.3129121E-004
2	1	0	0	1.984729949861503E+001	-1.2045241E-001	-1.2050381E-001	1.046456912032864E+000	1.2610205E-004
2	1	0	0	1.989739949734940E+001	-1.1544256E-001	-1.1549574E-001	1.045645916382906E+000	1.2076765E-004
2	1	0	0	1.994739949608629E+001	-1.1043995E-001	-1.1049055E-001	1.045852448853553E+000	1.1555682E-004
2	1	0	1	1.999749949482066E+001	-1.0543360E-001	-1.0549145E-001	1.047584787895042E+000	1.1051124E-004
2	1	0	1	2.004759949355503E+001	-1.0042171E-001	-1.0045762E-001	1.047729385251605E+000	1.0525239E-004
2	1	0	1	2.009759949229192E+001	-9.5421076E-002	-9.5479280E-002	1.047173534743123E+000	9.9983372E-005
2	1	0	1	2.014759949102881E+001	-9.0423189E-002	-9.0477735E-002	1.046916847162324E+000	9.4722665E-005
2	1	0	0	2.019779948976066E+001	-8.5400768E-002	-8.5465595E-002	1.046672912980178E+000	8.9454523E-005
2	1	0	0	2.024779948849755E+001	-8.0402337E-002	-8.0468722E-002	1.046902690270564E+000	8.4242922E-005
2	1	0	0	2.029779948723444E+001	-7.5402208E-002	-7.5456038E-002	1.046706438287405E+000	7.8980323E-005
2	1	0	1	2.034789948596881E+001	-7.0389889E-002	-7.0450850E-002	1.047603707613542E+000	7.3804571E-005
2	1	0	1	2.039799948470318E+001	-6.5383628E-002	-6.5456703E-002	1.046923292566099E+000	6.8528148E-005
2	1	0	1	2.044799948344007E+001	-6.0381472E-002	-6.0454238E-002	1.047071579317403E+000	6.3299914E-005
2	1	0	0	2.049809948217444E+001	-5.5371176E-002	-5.5424903E-002	1.046699285240762E+000	5.8013207E-005
2	1	0	0	2.054819948090881E+001	-5.0362915E-002	-5.0433479E-002	1.045897001944514E+000	5.2748226E-005
2	1	0	0	2.059819947964570E+001	-4.5360524E-002	-4.5423280E-002	1.047304164747827E+000	4.7571990E-005
2	1	0	1	2.064829947838007E+001	-4.0352467E-002	-4.0407743E-002	1.048050073908049E+000	4.2349337E-005
2	1	0	1	2.069839947711444E+001	-3.5342202E-002	-3.5409842E-002	1.047101874045937E+000	3.7077712E-005
2	1	0	1	2.074839947585133E+001	-3.0339990E-002	-3.0404473E-002	1.048065270533833E+000	3.1865871E-005
2	1	0	1	2.079839947458822E+001	-2.5343653E-002	-2.5405152E-002	1.049243949478889E+000	2.6656202E-005
2	1	0	0	2.084859947332006E+001	-2.0321259E-002	-2.0380910E-002	1.049016599782187E+000	2.1379914E-005
2	1	0	0	2.089859947205696E+001	-1.5321273E-002	-1.5379001E-002	1.048296538911405E+000	1.6121754E-005
2	1	0	0	2.094859947079385E+001	-1.0322704E-002	-1.0402467E-002	1.048266973106461E+000	1.0904562E-005
2	1	0	1	2.099879946952569E+001	-5.3003137E-003	-5.3829248E-003	1.049209684117571E+000	5.6478170E-006
2	1	0	1	2.104879946826259E+001	-3.0255321E-004	-3.7216331E-004	1.049916398578826E+000	3.9074035E-007
2	1	0	1	2.109879946699948E+001	4.6980185E-003	4.6051219E-003	1.049975254026235E+000	4.8352640E-006
2	1	0	0	2.114889946573385E+001	9.7098900E-003	9.6328910E-003	1.050929557306178E+000	1.0123490E-005
2	1	0	0	2.119899946446822E+001	1.4716511E-002	1.4635038E-002	1.050180219010574E+000	1.5369427E-005
2	1	0	0	2.124899946320511E+001	1.9718898E-002	1.9659910E-002	1.049164681214430E+000	2.0626483E-005
2	1	0	1	2.129909946193948E+001	2.4728544E-002	2.4659591E-002	1.050547353564824E+000	2.5906067E-005
2	1	0	1	2.134919946067384E+001	2.9737379E-002	2.9678965E-002	1.051919812891435E+000	3.1219890E-005
2	1	0	1	2.139919945941074E+001	3.4739550E-002	3.4666065E-002	1.054004313683362E+000	3.6538182E-005
2	1	0	0	2.144929945814511E+001	3.9747208E-002	3.9686799E-002	1.054165935091060E+000	4.1836473E-005
2	1	0	0	2.149939945687947E+001	4.4758081E-002	4.4675224E-002	1.054366007977393E+000	4.7104037E-005
2	1	0	0	2.154939945561637E+001	4.9759638E-002	4.9686797E-002	1.054652605640459E+000	5.2402309E-005
2	1	0	0	2.159939945435326E+001	5.4756582E-002	5.4693166E-002	1.055038709915134E+000	5.7703408E-005
2	1	0	1	2.164959945308510E+001	5.9778955E-002	5.9720498E-002	1.054862972412791E+000	6.2996944E-005
2	1	0	1	2.169959945182200E+001	6.4778276E-002	6.4720653E-002	1.055926351517614E+000	6.8340240E-005
2	1	0	1	2.174959945055889E+001	6.9777265E-002	6.9722354E-002	1.056338668589350E+000	7.3650423E-005
2	1	0	0	2.179979944929073E+001	7.4799791E-002	7.4735522E-002	1.056368132903934E+000	7.8948222E-005
2	1	0	0	2.184979944802762E+001	7.9796910E-002	7.9741098E-002	1.056342333282657E+000	8.4233900E-005
2	1	0	0	2.189979944676452E+001	8.4798105E-002	8.4754877E-002	1.057624918407450E+000	8.9638866E-005
2	1	0	1	2.194989944549889E+001	8.9809284E-002	8.9739889E-002	1.057990895700495E+000	9.4943985E-005
2	1	0	1	2.199999944423325E+001	9.4816588E-002	9.4764024E-002	1.057154403140441E+000	1.0018021E-004
2	1	0	1	2.203819944326824E+001	9.8640420E-002	9.8582119E-002	1.055751309311026E+000	1.0407820E-004
2	1	0	0	2.205179944292468E+001	9.9997252E-002	9.9994197E-002	1.051304817199707E+000	1.0512438E-004