EC-Lab ASCII FILE
Nb header lines : 55                          

I-V Characterization

Run on channel : 1 (SN 6514)
User : 
CE vs. WE compliance from -10 V to 10 V
Electrode connection : standard
Ewe ctrl range : min = -1.10 V, max = 0.20 V
Safety Limits :
	Do not start on E overload
Acquisition started on : 06/15/2016 19:12:20
Saved on :
	File : B125-G54-UN-G-D1GB-C15 FW 10mVs_C01.mpr
	Directory : E:\EC-Lab measurements\B125-G54-UN-G-D1GB\
	Host : 10.0.2.15
Device : VSP (SN 0295)
Address : USB
EC-Lab for windows v11.01 (software)
Internet server v11.00 (firmware)
Command interpretor v11.00 (firmware)
Electrode material : 
Initial state : 
Electrolyte : 
Comments : 
Electrode surface area : 0.001 cm²
Characteristic mass : 0.001 g
Equivalent Weight : 0.000 g/eq.
Density : 0.000 g/cm3
tR (h:m:s)          0:00:0.0000         
dER/dt (mV/h)       0.0                 
dER (mV)            0                   
dtR (s)             0.0000              
dE/dt               10.000              
dE/dt unit          mV/s                
Ei (V)              0.100               
vs.                 Ref                 
EL (V)              -1.000              
vs.                 Ref                 
record              <I>                 
dI                  0.000               
unit dI             µA                  
tI (s)              0.1000              
step percent        100                 
N                   100                 
E range min (V)     -1.100              
E range max (V)     0.200               
I Range             Auto                
I Range min         Unset               
I Range max         Unset               
I Range init        Unset               
Bandwidth           5                   

mode	ox/red	error	control changes	time/s	control/V	Ewe/V	<I>/mA	P/W
2	0	0	0	1.449999963369919E-001	9.9096134E-002	9.8962896E-002	1.133914737701415E+000	1.1221549E-004
2	0	0	1	3.977999899507267E-001	9.6567996E-002	9.6515618E-002	1.121656427468799E+000	1.0825737E-004
2	0	0	0	8.983999773045070E-001	9.1562025E-002	9.1495931E-002	1.115151431094510E+000	1.0203182E-004
2	0	0	1	1.398999964658287E+000	8.6556040E-002	8.6484760E-002	1.101705022916306E+000	9.5280695E-005
2	0	0	0	1.899699952009541E+000	8.1549041E-002	8.1489585E-002	1.087669708389374E+000	8.8633751E-005
2	0	0	0	2.400399939360796E+000	7.6542102E-002	7.6476380E-002	1.075907480991718E+000	8.2281513E-005
2	0	0	1	2.900999926714576E+000	7.1536116E-002	7.1455084E-002	1.071171510044208E+000	7.6540651E-005
2	0	0	0	3.401599914068356E+000	6.6530131E-002	6.6453852E-002	1.066773458477066E+000	7.0891205E-005
2	0	0	1	3.902199901422136E+000	6.1524101E-002	6.1458629E-002	1.060960174054951E+000	6.5205160E-005
2	0	0	0	4.402799888775917E+000	5.6518085E-002	5.6433994E-002	1.057936759652410E+000	5.9703598E-005
2	0	0	1	4.903399876129697E+000	5.1512111E-002	5.1425915E-002	1.054439629579452E+000	5.4225522E-005
2	0	0	0	5.403999863483477E+000	4.6506125E-002	4.6426363E-002	1.049212427294471E+000	4.8711117E-005
2	0	0	1	5.904599850837258E+000	4.1500106E-002	4.1424844E-002	1.045827733990795E+000	4.3323253E-005
2	0	0	0	6.405299838188512E+000	3.6493141E-002	3.6424372E-002	1.043489972739309E+000	3.8008468E-005
2	0	0	0	6.905999825539766E+000	3.1486209E-002	3.1402033E-002	1.038802719767379E+000	3.2620515E-005
2	0	0	1	7.406599812893546E+000	2.6480207E-002	2.6403079E-002	1.040104433041289E+000	2.7461960E-005
2	0	0	0	7.907199800247326E+000	2.1474186E-002	2.1385541E-002	1.039114573739788E+000	2.2222028E-005
2	0	0	1	8.407799787601107E+000	1.6468218E-002	1.6398482E-002	1.034574637962995E+000	1.6965454E-005
2	0	0	0	8.908399774954887E+000	1.1462180E-002	1.1368584E-002	1.030987529173602E+000	1.1720868E-005
2	0	0	1	9.408999762308667E+000	6.4562061E-003	6.3592754E-003	1.030192512500129E+000	6.5512781E-006
2	0	0	0	9.909599749662448E+000	1.4497692E-003	1.3729871E-003	1.030464758505061E+000	1.4148147E-006
2	0	0	1	1.041019973701623E+001	-3.5557766E-003	-3.6508648E-003	1.029140105714362E+000	3.7572513E-006
2	0	0	0	1.091089972436748E+001	-8.5627632E-003	-8.6554708E-003	1.023666467751948E+000	8.8603156E-006
2	0	0	0	1.141159971171874E+001	-1.3569770E-002	-1.3643353E-002	1.019556637746275E+000	1.3910171E-005
2	0	0	1	1.191219969907252E+001	-1.8575810E-002	-1.8638564E-002	1.017742943872680E+000	1.8969267E-005
2	0	0	0	1.241279968642630E+001	-2.3581808E-002	-2.3649037E-002	1.017450136720289E+000	2.4061716E-005
2	0	0	1	1.291339967378008E+001	-2.8587800E-002	-2.8654767E-002	1.018673457660572E+000	2.9189850E-005
2	0	0	0	1.341399966113386E+001	-3.3593837E-002	-3.3670451E-002	1.015076426926365E+000	3.4178083E-005
2	0	0	1	1.391459964848764E+001	-3.8599845E-002	-3.8667474E-002	1.010879813634233E+000	3.9088169E-005
2	0	0	0	1.441519963584142E+001	-4.3605853E-002	-4.3692507E-002	1.010775423854829E+000	4.4163313E-005
2	0	0	1	1.491579962319520E+001	-4.8611853E-002	-4.8670128E-002	1.007624155101630E+000	4.9041195E-005
2	0	0	1	1.541659961054393E+001	-5.3619850E-002	-5.3693134E-002	1.005428809649773E+000	5.3984622E-005
2	0	0	0	1.591719959789771E+001	-5.8625840E-002	-5.8684424E-002	1.006680007372291E+000	5.9076436E-005
2	0	0	1	1.641779958525149E+001	-6.3631840E-002	-6.3715898E-002	1.004118930188930E+000	6.3978339E-005
2	0	0	0	1.691839957260527E+001	-6.8637885E-002	-6.8717554E-002	1.001769295057443E+000	6.8839137E-005
2	0	0	1	1.741899955995905E+001	-7.3643900E-002	-7.3720671E-002	9.984561844243021E-001	7.3606861E-005
2	0	0	0	1.791959954731283E+001	-7.8649938E-002	-7.8702211E-002	9.968812989792957E-001	7.8456760E-005
2	0	0	1	1.842019953466661E+001	-8.3655953E-002	-8.3732702E-002	9.968531251156980E-001	8.3469204E-005
2	0	0	0	1.892079952202039E+001	-8.8661961E-002	-8.8750035E-002	9.941245983387002E-001	8.8228589E-005
2	0	0	1	1.942149950937164E+001	-9.3668915E-002	-9.3746260E-002	9.931177875625519E-001	9.3101080E-005
2	0	0	1	1.992219949672290E+001	-9.8675951E-002	-9.8740987E-002	9.913715868667756E-001	9.7889009E-005
2	0	0	0	2.042279948407668E+001	-1.0368194E-001	-1.0374457E-001	9.865264697273748E-001	1.0234676E-004
2	0	0	1	2.092339947143046E+001	-1.0868797E-001	-1.0876978E-001	9.866708095273502E-001	1.0731997E-004
2	0	0	0	2.142399945878424E+001	-1.1369399E-001	-1.1375786E-001	9.866311309931639E-001	1.1223704E-004
2	0	0	1	2.192459944613802E+001	-1.1869998E-001	-1.1875911E-001	9.815797976983660E-001	1.1657154E-004
2	0	0	0	2.242519943349180E+001	-1.2370600E-001	-1.2376031E-001	9.801695363657270E-001	1.2130608E-004
2	0	0	1	2.292579942084558E+001	-1.2871203E-001	-1.2878740E-001	9.800123437017554E-001	1.2621324E-004
2	0	0	0	2.342639940819936E+001	-1.3371804E-001	-1.3377929E-001	9.776615527751296E-001	1.3079087E-004
2	0	0	1	2.392709939555061E+001	-1.3872500E-001	-1.3879687E-001	9.735984433979556E-001	1.3513242E-004
2	0	0	1	2.442779938290187E+001	-1.4373203E-001	-1.4382170E-001	9.724095371154160E-001	1.3985360E-004
2	0	0	0	2.492839937025565E+001	-1.4873804E-001	-1.4882986E-001	9.729894172827400E-001	1.4480988E-004
2	0	0	1	2.542899935760943E+001	-1.5374410E-001	-1.5382421E-001	9.704711831475397E-001	1.4928196E-004
2	0	0	0	2.592959934496321E+001	-1.5875009E-001	-1.5883543E-001	9.658691310656220E-001	1.5341424E-004
2	0	0	1	2.643019933231699E+001	-1.6375609E-001	-1.6383526E-001	9.650294630899232E-001	1.5810585E-004
2	0	0	0	2.693079931967077E+001	-1.6876210E-001	-1.6885717E-001	9.626185644928533E-001	1.6254505E-004
2	0	0	1	2.743139930702455E+001	-1.7376815E-001	-1.7386292E-001	9.605050864395821E-001	1.6699622E-004
2	0	0	0	2.793199929437833E+001	-1.7877416E-001	-1.7886978E-001	9.577195077153675E-001	1.7130708E-004
2	0	0	1	2.843269928172958E+001	-1.8378113E-001	-1.8388249E-001	9.557732328689126E-001	1.7574996E-004
2	0	0	1	2.893339926908084E+001	-1.8878813E-001	-1.8889058E-001	9.552112024090018E-001	1.8043039E-004
2	0	0	0	2.943399925643462E+001	-1.9379413E-001	-1.9390130E-001	9.513783938406242E-001	1.8447351E-004
2	0	0	1	2.993459924378840E+001	-1.9880015E-001	-1.9890259E-001	9.465408635666392E-001	1.8826943E-004
2	0	0	0	3.043519923114218E+001	-2.0380621E-001	-2.0392908E-001	9.467346252119384E-001	1.9306672E-004
2	0	0	1	3.093579921849596E+001	-2.0881216E-001	-2.0891632E-001	9.421521079499726E-001	1.9683095E-004
2	0	0	0	3.143639920584974E+001	-2.1381824E-001	-2.1392490E-001	9.416601288355668E-001	2.0144455E-004
2	0	0	1	3.193699919320352E+001	-2.1882422E-001	-2.1892095E-001	9.403671790459338E-001	2.0586608E-004
2	0	0	0	3.243769918055477E+001	-2.2383118E-001	-2.2394429E-001	9.368633837841660E-001	2.0980521E-004
2	0	0	0	3.293839916790603E+001	-2.2883818E-001	-2.2893567E-001	9.347725170578194E-001	2.1400278E-004
2	0	0	1	3.343899915525981E+001	-2.3384421E-001	-2.3394857E-001	9.297256401559082E-001	2.1750799E-004
2	0	0	0	3.393959914261359E+001	-2.3885021E-001	-2.3896290E-001	9.276593723605338E-001	2.2167618E-004
2	0	0	1	3.444019912996737E+001	-2.4385624E-001	-2.4396740E-001	9.246444863664820E-001	2.2558311E-004
2	0	0	0	3.494079911732115E+001	-2.4886225E-001	-2.4894020E-001	9.242164397812580E-001	2.3007463E-004
2	0	0	1	3.544139910467493E+001	-2.5386825E-001	-2.5394380E-001	9.216326040571392E-001	2.3404289E-004
2	0	0	0	3.594199909202871E+001	-2.5887424E-001	-2.5896159E-001	9.209142420450718E-001	2.3848141E-004
2	0	0	1	3.644259907938249E+001	-2.6388031E-001	-2.6396257E-001	9.161857123233439E-001	2.4183873E-004
2	0	0	0	3.694329906673374E+001	-2.6888725E-001	-2.6896939E-001	9.104908027688960E-001	2.4489415E-004
2	0	0	0	3.744399905408500E+001	-2.7389428E-001	-2.7396491E-001	9.089554279660117E-001	2.4902189E-004
2	0	0	1	3.794459904143878E+001	-2.7890033E-001	-2.7898005E-001	9.051726363162995E-001	2.5252512E-004
2	0	0	0	3.844519902879256E+001	-2.8390631E-001	-2.8399679E-001	9.007737820089297E-001	2.5581685E-004
2	0	0	1	3.894579901614634E+001	-2.8891230E-001	-2.8898877E-001	8.991478605823531E-001	2.5984363E-004
2	0	0	0	3.944639900350012E+001	-2.9391834E-001	-2.9399821E-001	8.944706742753379E-001	2.6297278E-004
2	0	0	1	3.994699899085390E+001	-2.9892442E-001	-2.9901719E-001	8.923476380083266E-001	2.6682729E-004
2	0	0	0	4.044759897820768E+001	-3.0393046E-001	-3.0402219E-001	8.895306519688768E-001	2.7043707E-004
2	0	0	1	4.094819896556146E+001	-3.0893651E-001	-3.0902222E-001	8.848325584748826E-001	2.7343293E-004
2	0	0	0	4.144889895291271E+001	-3.1394339E-001	-3.1403789E-001	8.811584702450219E-001	2.7671715E-004
2	0	0	0	4.194959894026397E+001	-3.1895047E-001	-3.1904587E-001	8.784006625010292E-001	2.8025010E-004
2	0	0	1	4.245019892761775E+001	-3.2395646E-001	-3.2404742E-001	8.746918468079790E-001	2.8344162E-004
2	0	0	0	4.295079891497153E+001	-3.2896248E-001	-3.2902613E-001	8.693353728363942E-001	2.8603405E-004
2	0	0	1	4.345139890232531E+001	-3.3396849E-001	-3.3403105E-001	8.659013170272161E-001	2.8923791E-004
2	0	0	0	4.395199888967909E+001	-3.3897448E-001	-3.3904415E-001	8.627400918928698E-001	2.9250697E-004
2	0	0	1	4.445259887703287E+001	-3.4398049E-001	-3.4404528E-001	8.560597195068240E-001	2.9452331E-004
2	0	0	0	4.495319886438665E+001	-3.4898654E-001	-3.4906459E-001	8.512941855307812E-001	2.9715666E-004
2	0	0	1	4.545379885174043E+001	-3.5399249E-001	-3.5406131E-001	8.473881927834004E-001	3.0002737E-004
2	0	0	1	4.595459883908916E+001	-3.5900047E-001	-3.5908547E-001	8.457817715186948E-001	3.0370796E-004
2	0	0	0	4.645519882644294E+001	-3.6400646E-001	-3.6409566E-001	8.387489163594744E-001	3.0538483E-004
2	0	0	1	4.695579881379672E+001	-3.6901248E-001	-3.6908796E-001	8.349021357912125E-001	3.0815232E-004
2	0	0	0	4.745639880115050E+001	-3.7401849E-001	-3.7409192E-001	8.308882311308547E-001	3.1082859E-004
2	0	0	1	4.795699878850428E+001	-3.7902457E-001	-3.7910011E-001	8.233986732814813E-001	3.1215054E-004
2	0	0	0	4.845759877585806E+001	-3.8403058E-001	-3.8411513E-001	8.168217338639963E-001	3.1375358E-004
2	0	0	1	4.895819876321184E+001	-3.8903660E-001	-3.8912153E-001	8.123302677867699E-001	3.1609519E-004
2	0	0	0	4.945879875056562E+001	-3.9404267E-001	-3.9413837E-001	8.078408243480322E-001	3.1840106E-004
2	0	0	1	4.995949873791687E+001	-3.9904964E-001	-3.9913520E-001	8.021759346316091E-001	3.2017665E-004
2	0	0	1	5.046019872526813E+001	-4.0405661E-001	-4.0414399E-001	7.938144781664778E-001	3.2081534E-004
2	0	0	0	5.096079871262191E+001	-4.0906262E-001	-4.0914115E-001	7.887537807094436E-001	3.2271162E-004
2	0	0	1	5.146139869997569E+001	-4.1406861E-001	-4.1415399E-001	7.852063392452333E-001	3.2519634E-004
2	0	0	0	5.196199868732947E+001	-4.1907459E-001	-4.1915640E-001	7.779645975818714E-001	3.2608883E-004
2	0	0	1	5.246259867468325E+001	-4.2408061E-001	-4.2416790E-001	7.689935272658541E-001	3.2618237E-004
2	0	0	0	5.296319866203703E+001	-4.2908666E-001	-4.2916030E-001	7.638743646003041E-001	3.2782456E-004
2	0	0	1	5.346379864939081E+001	-4.3409261E-001	-4.3417796E-001	7.567224634089529E-001	3.2855221E-004
2	0	0	0	5.396439863674459E+001	-4.3909863E-001	-4.3918830E-001	7.508694454480302E-001	3.2977309E-004
2	0	0	1	5.446509862409584E+001	-4.4410557E-001	-4.4418263E-001	7.424248199078036E-001	3.2977221E-004
2	0	0	1	5.496579861144710E+001	-4.4911259E-001	-4.4919652E-001	7.349597959974439E-001	3.3014137E-004
2	0	0	0	5.546639859880088E+001	-4.5411861E-001	-4.5421466E-001	7.280463542470739E-001	3.3068933E-004
2	0	0	1	5.596699858615466E+001	-4.5912462E-001	-4.5921984E-001	7.202367683546465E-001	3.3074702E-004
2	0	0	0	5.646759857350844E+001	-4.6413067E-001	-4.6421576E-001	7.127050650967064E-001	3.3084891E-004
2	0	0	1	5.696819856086222E+001	-4.6913669E-001	-4.6922308E-001	7.053373240669938E-001	3.3096055E-004
2	0	0	0	5.746879854821600E+001	-4.7414276E-001	-4.7423887E-001	6.963367291955826E-001	3.3022996E-004
2	0	0	1	5.796939853556978E+001	-4.7914875E-001	-4.7921580E-001	6.886955143319025E-001	3.3003377E-004
2	0	0	0	5.846999852292356E+001	-4.8415473E-001	-4.8425925E-001	6.807090778164806E-001	3.2963968E-004
2	0	0	1	5.897069851027481E+001	-4.8916173E-001	-4.8925596E-001	6.701544181717232E-001	3.2787706E-004
2	0	0	1	5.947139849762607E+001	-4.9416873E-001	-4.9426910E-001	6.622319153033760E-001	3.2732077E-004
2	0	0	0	5.997199848497985E+001	-4.9917471E-001	-4.9925688E-001	6.546182811100376E-001	3.2682269E-004
2	0	0	1	6.047259847233363E+001	-5.0418067E-001	-5.0427854E-001	6.441868045883865E-001	3.2484959E-004
2	0	0	0	6.097319845968741E+001	-5.0918669E-001	-5.0928402E-001	6.333208485204676E-001	3.2254017E-004
2	0	0	1	6.147379844704119E+001	-5.1419276E-001	-5.1430100E-001	6.211883795006834E-001	3.1947781E-004
2	0	0	0	6.197439843439497E+001	-5.1919878E-001	-5.1930922E-001	6.121673405697283E-001	3.1790414E-004
2	0	0	1	6.247499842174875E+001	-5.2420479E-001	-5.2430016E-001	6.026481680832667E-001	3.1596853E-004
2	0	0	0	6.297559840910253E+001	-5.2921081E-001	-5.2931350E-001	5.913703136501489E-001	3.1302028E-004
2	0	0	0	6.347639839645126E+001	-5.3421879E-001	-5.3432786E-001	5.810202335330006E-001	3.1045530E-004
2	0	0	1	6.397699838380504E+001	-5.3922480E-001	-5.3932351E-001	5.699363829189394E-001	3.0738008E-004
2	0	0	0	6.447759837115882E+001	-5.4423082E-001	-5.4432875E-001	5.587662141422847E-001	3.0415252E-004
2	0	0	1	6.497819835851260E+001	-5.4923677E-001	-5.4934788E-001	5.460725097822134E-001	2.9998377E-004
2	0	0	0	6.547879834586638E+001	-5.5424285E-001	-5.5437875E-001	5.348135959288687E-001	2.9648928E-004
2	0	0	1	6.597939833322016E+001	-5.5924892E-001	-5.5938190E-001	5.240012887838068E-001	2.9311684E-004
2	0	0	0	6.647999832057394E+001	-5.6425500E-001	-5.6436950E-001	5.126042629331149E-001	2.8929822E-004
2	0	0	1	6.698059830792772E+001	-5.6926101E-001	-5.6937003E-001	4.987500968238967E-001	2.8397335E-004
2	0	0	0	6.749879829483689E+001	-5.7444292E-001	-5.7455432E-001	4.859476272169418E-001	2.7920332E-004
2	0	0	1	6.801699828174606E+001	-5.7962507E-001	-5.7967907E-001	4.736479068233814E-001	2.7456379E-004
2	0	0	0	6.851759826909984E+001	-5.8463097E-001	-5.8468407E-001	4.627617846931913E-001	2.7056944E-004
2	0	0	1	6.901819825645362E+001	-5.8963698E-001	-5.8970499E-001	4.484355061700560E-001	2.6444465E-004
2	0	0	0	6.951879824380740E+001	-5.9464300E-001	-5.9470999E-001	4.346358561054506E-001	2.5848229E-004
2	0	0	1	7.001939823116118E+001	-5.9964907E-001	-5.9971178E-001	4.216820238890180E-001	2.5288766E-004
2	0	0	0	7.051999821851496E+001	-6.0465491E-001	-6.0472542E-001	4.074554648086979E-001	2.4639867E-004
2	0	0	1	7.102069820586621E+001	-6.0966206E-001	-6.0973066E-001	3.940538443155814E-001	2.4026672E-004
2	0	0	1	7.152139819321746E+001	-6.1466902E-001	-6.1474115E-001	3.812011614962731E-001	2.3434004E-004
2	0	0	0	7.202199818057125E+001	-6.1967510E-001	-6.1974734E-001	3.669692480644260E-001	2.2742822E-004
2	0	0	1	7.252259816792503E+001	-6.2468094E-001	-6.2474239E-001	3.517362074765167E-001	2.1974451E-004
2	0	0	0	7.302319815527881E+001	-6.2968713E-001	-6.2976366E-001	3.381121904248481E-001	2.1293077E-004
2	0	0	1	7.352379814263259E+001	-6.3469303E-001	-6.3476050E-001	3.237019451485845E-001	2.0547320E-004
2	0	0	0	7.402439812998637E+001	-6.3969916E-001	-6.3975334E-001	3.078599151615711E-001	1.9695441E-004
2	0	0	1	7.452499811734015E+001	-6.4470506E-001	-6.4475310E-001	2.934379945120056E-001	1.8919505E-004
2	0	0	0	7.502559810469393E+001	-6.4971119E-001	-6.4975876E-001	2.790167791934852E-001	1.8129360E-004
2	0	0	1	7.552629809204518E+001	-6.5471822E-001	-6.5475792E-001	2.637673856702802E-001	1.7270379E-004
2	0	0	1	7.602699807939644E+001	-6.5972525E-001	-6.5976262E-001	2.480121776408195E-001	1.6362917E-004
2	0	0	0	7.652759806675022E+001	-6.6473126E-001	-6.6477752E-001	2.328790411491773E-001	1.5481275E-004
2	0	0	1	7.702819805410400E+001	-6.6973722E-001	-6.6978025E-001	2.169781792457683E-001	1.4532771E-004
2	0	0	0	7.752879804145778E+001	-6.7474329E-001	-6.7476571E-001	2.016120928908189E-001	1.3604092E-004
2	0	0	1	7.802939802881156E+001	-6.7974907E-001	-6.7978001E-001	1.862841041993057E-001	1.2663221E-004
2	0	0	0	7.852999801616534E+001	-6.8475527E-001	-6.8478906E-001	1.699342008932119E-001	1.1636908E-004
2	0	0	1	7.903059800351912E+001	-6.8976116E-001	-6.8978852E-001	1.539425632965550E-001	1.0618781E-004
2	0	0	0	7.953119799087290E+001	-6.9476730E-001	-6.9478720E-001	1.381877130923534E-001	9.6011056E-005
2	0	0	0	8.003199797822163E+001	-6.9977516E-001	-6.9980663E-001	1.218648491650957E-001	8.5281827E-005
2	0	0	1	8.053259796557541E+001	-7.0478129E-001	-7.0481515E-001	1.059537549067875E-001	7.4677810E-005
2	0	0	0	8.103319795292919E+001	-7.0978719E-001	-7.0981908E-001	8.965737085581860E-002	6.3640509E-005
2	0	0	1	8.153379794028297E+001	-7.1479326E-001	-7.1483248E-001	7.329890641660519E-002	5.2396441E-005
2	0	0	0	8.203439792763675E+001	-7.1979916E-001	-7.1982920E-001	5.706182835011944E-002	4.1074771E-005
2	0	0	1	8.255249791454844E+001	-7.2498053E-001	-7.2499686E-001	4.038829253453680E-002	2.9281386E-005
2	0	0	1	8.307059790146013E+001	-7.3016125E-001	-7.3018897E-001	2.357145112239784E-002	1.7211614E-005
2	0	0	1	8.358889788836677E+001	-7.3534417E-001	-7.3535734E-001	6.360867593798537E-003	4.6775108E-006
2	0	0	1	8.412449787483638E+001	-7.4070019E-001	-7.4072140E-001	-1.124963738159958E-002	8.3328468E-006
2	0	0	1	8.464259786174807E+001	-7.4588144E-001	-7.4590063E-001	-2.841118483848643E-002	2.1191921E-005
2	0	0	0	8.514319784910185E+001	-7.5088739E-001	-7.5090039E-001	-4.470217562247367E-002	3.3566881E-005
2	0	0	1	8.564389783645311E+001	-7.5589430E-001	-7.5592971E-001	-6.117970155051591E-002	4.6247555E-005
2	0	0	1	8.614459782380436E+001	-7.6090151E-001	-7.6094711E-001	-7.776686705581071E-002	5.9176473E-005
2	0	0	0	8.664519781115814E+001	-7.6590735E-001	-7.6595551E-001	-9.409159042093873E-002	7.2069975E-005
2	0	0	1	8.716329779806983E+001	-7.7108854E-001	-7.7113700E-001	-1.110830395724731E-001	8.5660242E-005
2	0	0	1	8.768139778498153E+001	-7.7626932E-001	-7.7631432E-001	-1.281426512679662E-001	9.9478973E-005
2	0	0	0	8.818199777233531E+001	-7.8127551E-001	-7.8131348E-001	-1.446812050103627E-001	1.1304137E-004
2	0	0	1	8.868259775968909E+001	-7.8628135E-001	-7.8632593E-001	-1.610231957752215E-001	1.2661671E-004
2	0	0	0	8.918329774704034E+001	-7.9128838E-001	-7.9134303E-001	-1.773351576648504E-001	1.4033294E-004
2	0	0	0	8.968399773439160E+001	-7.9629523E-001	-7.9636008E-001	-1.938032432844654E-001	1.5433716E-004
2	0	0	1	9.018459772174538E+001	-8.0130142E-001	-8.0136305E-001	-2.098977864934006E-001	1.6820434E-004
2	0	0	0	9.068519770909916E+001	-8.0630738E-001	-8.0635613E-001	-2.263545578989330E-001	1.8252239E-004
2	0	0	1	9.118579769645294E+001	-8.1131351E-001	-8.1137455E-001	-2.427776526101817E-001	1.9698360E-004
2	0	0	0	9.168639768380672E+001	-8.1631929E-001	-8.1638318E-001	-2.587093106617497E-001	2.1120593E-004
2	0	0	1	9.218699767116050E+001	-8.2132554E-001	-8.2138950E-001	-2.750910825302282E-001	2.2595693E-004
2	0	0	0	9.268759765851428E+001	-8.2633132E-001	-8.2640070E-001	-2.908555071331618E-001	2.4036320E-004
2	0	0	1	9.318819764586806E+001	-8.3133763E-001	-8.3141130E-001	-3.071607793644171E-001	2.5537694E-004
2	0	0	0	9.368889763321931E+001	-8.3634436E-001	-8.3639133E-001	-3.235532276501361E-001	2.7061711E-004
2	0	0	0	9.418959762057057E+001	-8.4135157E-001	-8.4140432E-001	-3.394336847599329E-001	2.8560098E-004
2	0	0	1	9.469019760792435E+001	-8.4635758E-001	-8.4642005E-001	-3.554618210128453E-001	3.0087002E-004
2	0	0	0	9.519079759527813E+001	-8.5136342E-001	-8.5142493E-001	-3.715118641661439E-001	3.1631446E-004
2	0	0	1	9.569139758263191E+001	-8.5636967E-001	-8.5644084E-001	-3.874362099808563E-001	3.3181621E-004
2	0	0	0	9.619199756998569E+001	-8.6137545E-001	-8.6143756E-001	-4.035645885018715E-001	3.4764569E-004
2	0	0	1	9.669259755733947E+001	-8.6638170E-001	-8.6644721E-001	-4.190693977487037E-001	3.6310151E-004
2	0	0	0	9.719319754469325E+001	-8.7138736E-001	-8.7145543E-001	-4.344820070887169E-001	3.7863170E-004
2	0	0	1	9.769379753204703E+001	-8.7639368E-001	-8.7643617E-001	-4.504486810909070E-001	3.9478953E-004
2	0	0	0	9.819449751939828E+001	-8.8140047E-001	-8.8144636E-001	-4.658694255042355E-001	4.1063892E-004
2	0	0	0	9.869519750674954E+001	-8.8640755E-001	-8.8646114E-001	-4.815961406181044E-001	4.2691626E-004
2	0	0	1	9.919579749410332E+001	-8.9141333E-001	-8.9146262E-001	-4.969999410568606E-001	4.4305687E-004
2	0	0	0	9.969639748145710E+001	-8.9641970E-001	-8.9646894E-001	-5.127044339461315E-001	4.5962361E-004
2	0	0	1	1.001969974688109E+002	-9.0142542E-001	-9.0148371E-001	-5.284005605735729E-001	4.7634449E-004
2	0	0	0	1.006975974561647E+002	-9.0643167E-001	-9.0649003E-001	-5.441546284054333E-001	4.9327075E-004
2	0	0	1	1.011981974435184E+002	-9.1143745E-001	-9.1149026E-001	-5.597279707957377E-001	5.1018660E-004
2	0	0	0	1.016987974308722E+002	-9.1644377E-001	-9.1648132E-001	-5.746110400079250E-001	5.2662031E-004
2	0	0	1	1.021994974182235E+002	-9.2145061E-001	-9.2149657E-001	-5.898467079248224E-001	5.4354174E-004
2	0	0	1	1.027001974055747E+002	-9.2645758E-001	-9.2650855E-001	-6.054691478551710E-001	5.6097232E-004
2	0	0	0	1.032007973929285E+002	-9.3146366E-001	-9.3150675E-001	-6.210748183476689E-001	5.7853537E-004
2	0	0	1	1.037013973802823E+002	-9.3646961E-001	-9.3653065E-001	-6.360614793032537E-001	5.9569109E-004
2	0	0	0	1.042019973676361E+002	-9.4147581E-001	-9.4152826E-001	-6.513830917460988E-001	6.1329559E-004
2	0	0	1	1.047025973549898E+002	-9.4648147E-001	-9.4654745E-001	-6.673136738052303E-001	6.3164404E-004
2	0	0	0	1.052031973423436E+002	-9.5148784E-001	-9.5153230E-001	-6.823386697822391E-001	6.4926728E-004
2	0	0	1	1.057037973296974E+002	-9.5649344E-001	-9.5650184E-001	-6.973932813401866E-001	6.6705793E-004
2	0	0	0	1.062043973170512E+002	-9.6149975E-001	-9.6154189E-001	-7.133064932437354E-001	6.8587408E-004
2	0	0	1	1.067050973044024E+002	-9.6650630E-001	-9.6657932E-001	-7.284209974566345E-001	7.0407666E-004
2	0	0	1	1.072057972917537E+002	-9.7151381E-001	-9.7156054E-001	-7.444790433866810E-001	7.2330644E-004
2	0	0	0	1.077063972791075E+002	-9.7651947E-001	-9.7655773E-001	-7.595157335664311E-001	7.4171094E-004
2	0	0	1	1.082069972664613E+002	-9.8152566E-001	-9.8158032E-001	-7.740838196194648E-001	7.5982546E-004
2	0	0	0	1.087075972538150E+002	-9.8653138E-001	-9.8658061E-001	-7.900450807520717E-001	7.7944313E-004
2	0	0	1	1.092081972411688E+002	-9.9153769E-001	-9.9156380E-001	-8.064893458819613E-001	7.9968566E-004
2	0	0	0	1.097087972285226E+002	-9.9654353E-001	-9.9656409E-001	-8.211912140623152E-001	8.1836968E-004
2	0	0	1	1.100066972209970E+002	-9.9952102E-001	-9.9955970E-001	-8.301295542429026E-001	8.2976406E-004
2	0	0	0	1.100521972198476E+002	-1.0000215E+000	-9.9990422E-001	-8.331007659435272E-001	8.3302095E-004