EC-Lab ASCII FILE
Nb header lines : 55                          

I-V Characterization

Run on channel : 1 (SN 6514)
User : 
CE vs. WE compliance from -10 V to 10 V
Electrode connection : standard
Ewe ctrl range : min = -1.10 V, max = 0.20 V
Safety Limits :
	Do not start on E overload
Acquisition started on : 06/15/2016 18:19:21
Saved on :
	File : B125-G54-UN-G-D1GB-C7 FW 100mVs dark_C01.mpr
	Directory : E:\EC-Lab measurements\B125-G54-UN-G-D1GB\
	Host : 10.0.2.15
Device : VSP (SN 0295)
Address : USB
EC-Lab for windows v11.01 (software)
Internet server v11.00 (firmware)
Command interpretor v11.00 (firmware)
Electrode material : 
Initial state : 
Electrolyte : 
Comments : 
Electrode surface area : 0.001 cm²
Characteristic mass : 0.001 g
Equivalent Weight : 0.000 g/eq.
Density : 0.000 g/cm3
tR (h:m:s)          0:00:0.0000         
dER/dt (mV/h)       0.0                 
dER (mV)            0                   
dtR (s)             0.0000              
dE/dt               100.000             
dE/dt unit          mV/s                
Ei (V)              0.100               
vs.                 Ref                 
EL (V)              -1.000              
vs.                 Ref                 
record              <I>                 
dI                  0.000               
unit dI             µA                  
tI (s)              0.1000              
step percent        100                 
N                   100                 
E range min (V)     -1.100              
E range max (V)     0.200               
I Range             Auto                
I Range min         Unset               
I Range max         Unset               
I Range init        Unset               
Bandwidth           5                   

mode	ox/red	error	control changes	time/s	control/V	Ewe/V	<I>/mA	P/W
2	0	0	1	8.039999796892516E-002	9.6993521E-002	9.7033992E-002	1.032568572554737E-003	1.0019425E-007
2	0	0	0	1.056999973297934E-001	9.4465211E-002	9.4426535E-002	8.894972116053543E-004	8.3992141E-008
2	0	0	0	1.710999956776504E-001	8.7929122E-002	8.7853782E-002	6.508811286550942E-004	5.7182369E-008
2	0	0	1	2.363999940280337E-001	8.1398934E-002	8.1345215E-002	4.859105586660951E-004	3.9526498E-008
2	0	0	1	2.863999927649274E-001	7.6396704E-002	7.6357715E-002	3.833499549272729E-004	2.9271726E-008
2	0	0	0	3.364999914992950E-001	7.1386509E-002	7.1333148E-002	2.984077234783880E-004	2.1286363E-008
2	0	0	0	3.865999902336625E-001	6.6378236E-002	6.6319101E-002	2.271173213774054E-004	1.5062216E-008
2	0	0	0	4.365999889705563E-001	6.1375830E-002	6.1314914E-002	1.648637128825343E-004	1.0108605E-008
2	0	0	1	4.866999877049238E-001	5.6367833E-002	5.6317788E-002	1.108843435918392E-004	6.2447607E-009
2	0	0	1	5.367999864392914E-001	5.1357362E-002	5.1294848E-002	6.603304631124613E-005	3.3871550E-009
2	0	0	1	5.867999851761851E-001	4.6355389E-002	4.6295580E-002	2.584425533220310E-005	1.1964748E-009
2	0	0	1	6.367999839130789E-001	4.1359074E-002	4.1292664E-002	-9.953092164070366E-006	4.1098969E-010
2	0	0	0	6.869999826449202E-001	3.6336713E-002	3.6278274E-002	-4.159980978946847E-005	1.5091693E-009
2	0	0	0	7.369999813818140E-001	3.1336755E-002	3.1267099E-002	-6.909308409850528E-005	2.1603404E-009
2	0	0	0	7.869999801187078E-001	2.6338194E-002	2.6275996E-002	-9.514355268806654E-005	2.4999915E-009
2	0	0	1	8.371999788505491E-001	2.1315835E-002	2.1252129E-002	-1.176966648980351E-004	2.5013047E-009
2	0	0	1	8.871999775874428E-001	1.6318094E-002	1.6258294E-002	-1.387196433867721E-004	2.2553448E-009
2	0	0	1	9.371999763243366E-001	1.1317321E-002	1.1246360E-002	-1.577945859624515E-004	1.7746147E-009
2	0	0	0	9.872999750587041E-001	6.3056569E-003	6.2304125E-003	-1.756771129373482E-004	1.0945409E-009
2	0	0	0	1.037399973793072E+000	1.2990338E-003	1.2242981E-003	-1.916671423401284E-004	2.3465774E-010
2	0	0	0	1.087399972529965E+000	-3.7033611E-003	-3.7909220E-003	-2.072518434084103E-004	7.8567558E-010
2	0	0	1	1.137499971264333E+000	-8.7130331E-003	-8.7865414E-003	-2.216169826731413E-004	1.9472468E-009
2	0	0	1	1.187599969998701E+000	-1.3721895E-002	-1.3784300E-002	-2.348774295544503E-004	3.2376208E-009
2	0	0	1	1.237599968735594E+000	-1.8724302E-002	-1.8770188E-002	-2.479800396388123E-004	4.6546318E-009
2	0	0	0	1.287699967469962E+000	-2.3731761E-002	-2.3769280E-002	-2.600489176865610E-004	6.1811756E-009
2	0	0	0	1.337799966204329E+000	-2.8742639E-002	-2.8789015E-002	-2.720529064984189E-004	7.8321349E-009
2	0	0	0	1.387799964941223E+000	-3.3744227E-002	-3.3796009E-002	-2.832741880317487E-004	9.5735366E-009
2	0	0	0	1.437799963678117E+000	-3.8741175E-002	-3.8785201E-002	-2.942512176742234E-004	1.1412593E-008
2	0	0	1	1.487999962409958E+000	-4.3763574E-002	-4.3814484E-002	-3.053047331603252E-004	1.3376769E-008
2	0	0	1	1.537999961146852E+000	-4.8762985E-002	-4.8809342E-002	-3.143678082654800E-004	1.5344085E-008
2	0	0	1	1.587999959883746E+000	-5.3762134E-002	-5.3814452E-002	-3.239935750491210E-004	1.7435537E-008
2	0	0	0	1.638199958615587E+000	-5.8784347E-002	-5.8826145E-002	-3.336688370426617E-004	1.9628452E-008
2	0	0	0	1.688199957352481E+000	-6.3781686E-002	-6.3835703E-002	-3.435369355060496E-004	2.1929921E-008
2	0	0	0	1.738199956089375E+000	-6.8782844E-002	-6.8834960E-002	-3.527870498350009E-004	2.4284082E-008
2	0	0	1	1.788299954823742E+000	-7.3794171E-002	-7.3836342E-002	-3.623953534271744E-004	2.6757947E-008
2	0	0	1	1.838399953558110E+000	-7.8801356E-002	-7.8855194E-002	-3.715968632818762E-004	2.9302344E-008
2	0	0	1	1.888399952295003E+000	-8.3803780E-002	-8.3855957E-002	-3.811742189792616E-004	3.1963729E-008
2	0	0	0	1.938499951029371E+000	-8.8812873E-002	-8.8871770E-002	-3.900986667680810E-004	3.4668759E-008
2	0	0	0	1.988599949763739E+000	-9.3822084E-002	-9.3865409E-002	-3.999439827921071E-004	3.7540907E-008
2	0	0	0	2.038599948500632E+000	-9.8824568E-002	-9.8873802E-002	-4.086134874980007E-004	4.0401169E-008
2	0	0	1	2.088699947235000E+000	-1.0383155E-001	-1.0387692E-001	-4.186350289438223E-004	4.3486516E-008
2	0	0	1	2.138799945969367E+000	-1.0884300E-001	-1.0888544E-001	-4.291074968052729E-004	4.6723560E-008
2	0	0	1	2.188799944706261E+000	-1.1384419E-001	-1.1389366E-001	-4.375905252904161E-004	4.9838786E-008
2	0	0	1	2.238799943443155E+000	-1.1884167E-001	-1.1888192E-001	-4.472353392654068E-004	5.3168193E-008
2	0	0	0	2.288999942174996E+000	-1.2386402E-001	-1.2390997E-001	-4.564688896315930E-004	5.6561049E-008
2	0	0	0	2.338999940911890E+000	-1.2886286E-001	-1.2891823E-001	-4.680682803548135E-004	6.0342536E-008
2	0	0	0	2.388999939648784E+000	-1.3386235E-001	-1.3390991E-001	-4.783074065485742E-004	6.4050106E-008
2	0	0	1	2.439199938380625E+000	-1.3888477E-001	-1.3892281E-001	-4.904799300362479E-004	6.8138853E-008
2	0	0	1	2.489199937117519E+000	-1.4388163E-001	-1.4395598E-001	-4.999115057594521E-004	7.1965246E-008
2	0	0	1	2.539199935854413E+000	-1.4888336E-001	-1.4894478E-001	-5.092563041143531E-004	7.5851069E-008
2	0	0	0	2.589299934588780E+000	-1.5389392E-001	-1.5394856E-001	-5.206737109594729E-004	8.0156966E-008
2	0	0	0	2.639399933323148E+000	-1.5890183E-001	-1.5897635E-001	-5.307749333913220E-004	8.4380659E-008
2	0	0	0	2.689399932060041E+000	-1.6390401E-001	-1.6398177E-001	-5.415809140017127E-004	8.8809394E-008
2	0	0	1	2.739499930794409E+000	-1.6891268E-001	-1.6899438E-001	-5.539664374793586E-004	9.3617217E-008
2	0	0	1	2.789599929528777E+000	-1.7392249E-001	-1.7399994E-001	-5.650302504656025E-004	9.8315226E-008
2	0	0	1	2.839599928265670E+000	-1.7892505E-001	-1.7900352E-001	-5.778997438277428E-004	1.0344609E-007
2	0	0	0	2.889699927000038E+000	-1.8393146E-001	-1.8402396E-001	-5.891850472387033E-004	1.0842417E-007
2	0	0	0	2.939799925734405E+000	-1.8894343E-001	-1.8902501E-001	-6.026911960685583E-004	1.1392371E-007
2	0	0	0	2.989799924471299E+000	-1.9394398E-001	-1.9402957E-001	-6.138525907128092E-004	1.1910556E-007
2	0	0	0	3.039799923208193E+000	-1.9894172E-001	-1.9902506E-001	-6.269352267778434E-004	1.2477582E-007
2	0	0	1	3.089999921940034E+000	-2.0396422E-001	-2.0405668E-001	-6.346806572338042E-004	1.2951082E-007
2	0	0	1	3.139999920676928E+000	-2.0896278E-001	-2.0906231E-001	-6.498442128973422E-004	1.3585793E-007
2	0	0	1	3.189999919413822E+000	-2.1396297E-001	-2.1405771E-001	-6.651224193160027E-004	1.4237459E-007
2	0	0	0	3.240099918148189E+000	-2.1897505E-001	-2.1906529E-001	-6.750591849944403E-004	1.4788203E-007
2	0	0	0	3.290199916882557E+000	-2.2398150E-001	-2.2407061E-001	-6.924561105291459E-004	1.5515906E-007
2	0	0	0	3.340199915619451E+000	-2.2898370E-001	-2.2906972E-001	-7.078608172642652E-004	1.6214948E-007
2	0	0	1	3.390299914353818E+000	-2.3399378E-001	-2.3408727E-001	-7.216292545918412E-004	1.6892423E-007
2	0	0	1	3.440399913088186E+000	-2.3900221E-001	-2.3909536E-001	-7.377999459696940E-004	1.7640454E-007
2	0	0	1	3.490399911825079E+000	-2.4400450E-001	-2.4409086E-001	-7.513074590075929E-004	1.8338729E-007
2	0	0	0	3.540499910559447E+000	-2.4901254E-001	-2.4908134E-001	-7.697985603666267E-004	1.9174246E-007
2	0	0	0	3.590599909293815E+000	-2.5402313E-001	-2.5409210E-001	-7.860143883820607E-004	1.9972005E-007
2	0	0	0	3.640599908030708E+000	-2.5902519E-001	-2.5909877E-001	-8.045948343996147E-004	2.0846953E-007
2	0	0	0	3.690599906767602E+000	-2.6402122E-001	-2.6407605E-001	-8.210561071481728E-004	2.1682126E-007
2	0	0	1	3.740799905499443E+000	-2.6904374E-001	-2.6911160E-001	-8.420369691387530E-004	2.2660191E-007
2	0	0	1	3.790799904236337E+000	-2.7404371E-001	-2.7409896E-001	-8.607081007871546E-004	2.3591920E-007
2	0	0	1	3.840799902973231E+000	-2.7904239E-001	-2.7912167E-001	-8.784758458571049E-004	2.4520165E-007
2	0	0	0	3.890999901705072E+000	-2.8406462E-001	-2.8414446E-001	-9.016039210965870E-004	2.5618576E-007
2	0	0	0	3.940999900441966E+000	-2.8906259E-001	-2.8911370E-001	-9.222539738448481E-004	2.6663625E-007
2	0	0	0	3.990999899178860E+000	-2.9406303E-001	-2.9412198E-001	-9.423935771609594E-004	2.7717866E-007
2	0	0	1	4.041099897913227E+000	-2.9907477E-001	-2.9913846E-001	-9.642801901319602E-004	2.8845329E-007
2	0	0	1	4.091199896647595E+000	-3.0408183E-001	-3.0415568E-001	-9.864584054841124E-004	3.0003693E-007
2	0	0	1	4.141199895384489E+000	-3.0908397E-001	-3.0915630E-001	-1.008446937447286E-003	3.1176774E-007
2	0	0	0	4.191299894118856E+000	-3.1409356E-001	-3.1415135E-001	-1.031916502967634E-003	3.2417796E-007
2	0	0	0	4.241399892853224E+000	-3.1910267E-001	-3.1916875E-001	-1.064591697525808E-003	3.3978441E-007
2	0	0	0	4.291399891590117E+000	-3.2410502E-001	-3.2418072E-001	-1.089928207532444E-003	3.5333372E-007
2	0	0	1	4.341499890324485E+000	-3.2911223E-001	-3.2915601E-001	-1.115767492587643E-003	3.6726158E-007
2	0	0	1	4.391599889058853E+000	-3.3412349E-001	-3.3416754E-001	-1.145659381871476E-003	3.8284219E-007
2	0	0	1	4.441599887795746E+000	-3.3912471E-001	-3.3917814E-001	-1.176637164192720E-003	3.9908960E-007
2	0	0	1	4.491599886532640E+000	-3.4412181E-001	-3.4416413E-001	-1.208271158537357E-003	4.1584360E-007
2	0	0	0	4.541799885264481E+000	-3.4914425E-001	-3.4920657E-001	-1.240813478503175E-003	4.3330022E-007
2	0	0	0	4.591799884001375E+000	-3.5414377E-001	-3.5421610E-001	-1.273017335807970E-003	4.5092324E-007
2	0	0	0	4.641799882738269E+000	-3.5914260E-001	-3.5920998E-001	-1.303570162400694E-003	4.6825542E-007
2	0	0	1	4.691999881470110E+000	-3.6416501E-001	-3.6422598E-001	-1.336057735895606E-003	4.8662696E-007
2	0	0	1	4.741999880207004E+000	-3.6916226E-001	-3.6922601E-001	-1.375947377927533E-003	5.0803555E-007
2	0	0	1	4.791999878943898E+000	-3.7416348E-001	-3.7423679E-001	-1.412081324840537E-003	5.2845280E-007
2	0	0	0	4.842099877678265E+000	-3.7917474E-001	-3.7924314E-001	-1.452482841763976E-003	5.5084416E-007
2	0	0	0	4.892199876412633E+000	-3.8418227E-001	-3.8425288E-001	-1.496294990877743E-003	5.7495566E-007
2	0	0	0	4.942199875149527E+000	-3.8918447E-001	-3.8924459E-001	-1.542771271758309E-003	6.0051536E-007
2	0	0	1	4.992299873883894E+000	-3.9419344E-001	-3.9425617E-001	-1.584411643555765E-003	6.2466410E-007
2	0	0	1	5.042399872618262E+000	-3.9920300E-001	-3.9928904E-001	-1.637203916477068E-003	6.5371756E-007
2	0	0	1	5.092399871355155E+000	-4.0420499E-001	-4.0427086E-001	-1.686808360700516E-003	6.8192747E-007
2	0	0	0	5.142499870089523E+000	-4.0921217E-001	-4.0925613E-001	-1.736699224962838E-003	7.1075482E-007
2	0	0	0	5.192599868823891E+000	-4.1422391E-001	-4.1429174E-001	-1.802631684307245E-003	7.4681543E-007
2	0	0	0	5.242599867560784E+000	-4.1922498E-001	-4.1928765E-001	-1.863654354102033E-003	7.8140727E-007
2	0	0	0	5.292599866297678E+000	-4.2422217E-001	-4.2428720E-001	-1.924017167579499E-003	8.1633584E-007
2	0	0	1	5.342799865029519E+000	-4.2924482E-001	-4.2929164E-001	-1.983815285076837E-003	8.5163532E-007
2	0	0	1	5.392799863766413E+000	-4.3424323E-001	-4.3430269E-001	-2.052663169440114E-003	8.9147716E-007
2	0	0	1	5.442799862503307E+000	-4.3924299E-001	-4.3929958E-001	-2.124633847326415E-003	9.3335075E-007
2	0	0	0	5.492999861235148E+000	-4.4426548E-001	-4.4433796E-001	-2.195246029520537E-003	9.7543113E-007
2	0	0	0	5.542999859972042E+000	-4.4926247E-001	-4.4932374E-001	-2.269651575613409E-003	1.0198083E-006
2	0	0	0	5.592999858708936E+000	-4.5426390E-001	-4.5432606E-001	-2.348232953874159E-003	1.0668634E-006
2	0	0	1	5.643099857443303E+000	-4.5927483E-001	-4.5933583E-001	-2.431104872806119E-003	1.1166936E-006
2	0	0	1	5.693199856177671E+000	-4.6428239E-001	-4.6434763E-001	-2.521086608344686E-003	1.1706605E-006
2	0	0	1	5.743199854914565E+000	-4.6928456E-001	-4.6933842E-001	-2.607637765537661E-003	1.2238646E-006
2	0	0	0	5.793299853648932E+000	-4.7429329E-001	-4.7435582E-001	-2.701870219380006E-003	1.2816479E-006
2	0	0	0	5.843399852383300E+000	-4.7930351E-001	-4.7937396E-001	-2.800112869436683E-003	1.3423012E-006
2	0	0	0	5.893399851120193E+000	-4.8430577E-001	-4.8438612E-001	-2.903459196545534E-003	1.4063953E-006
2	0	0	1	5.943499849854561E+000	-4.8931205E-001	-4.8938188E-001	-3.005063022858495E-003	1.4706234E-006
2	0	0	1	5.993599848588929E+000	-4.9432412E-001	-4.9440190E-001	-3.115758405248234E-003	1.5404369E-006
2	0	0	1	6.043599847325822E+000	-4.9932435E-001	-4.9940127E-001	-3.229425731720593E-003	1.6127793E-006
2	0	0	1	6.093599846062716E+000	-5.0432259E-001	-5.0441098E-001	-3.351982781855729E-003	1.6907769E-006
2	0	0	0	6.143799844794557E+000	-5.0934500E-001	-5.0942868E-001	-3.480885766455097E-003	1.7732631E-006
2	0	0	0	6.193799843531451E+000	-5.1434350E-001	-5.1443189E-001	-3.616230112868941E-003	1.8603041E-006
2	0	0	0	6.243799842268345E+000	-5.1934320E-001	-5.1942390E-001	-3.753186031084953E-003	1.9494946E-006
2	0	0	1	6.293899841002712E+000	-5.2435595E-001	-5.2443695E-001	-3.901346083198119E-003	2.0460100E-006
2	0	0	1	6.343999839737080E+000	-5.2936172E-001	-5.2943414E-001	-4.050474172551822E-003	2.1444594E-006
2	0	0	1	6.393999838473974E+000	-5.3436434E-001	-5.3444695E-001	-4.205344850218895E-003	2.2475338E-006
2	0	0	0	6.444099837208341E+000	-5.3937453E-001	-5.3945386E-001	-4.368731294414855E-003	2.3567291E-006
2	0	0	0	6.494199835942709E+000	-5.4438323E-001	-5.4447836E-001	-4.532524318473057E-003	2.4678613E-006
2	0	0	0	6.544199834679603E+000	-5.4938507E-001	-5.4947382E-001	-4.706662682732753E-003	2.5861880E-006
2	0	0	1	6.594299833413970E+000	-5.5439341E-001	-5.5449456E-001	-4.888608261639393E-003	2.7107067E-006
2	0	0	1	6.644399832148338E+000	-5.5940348E-001	-5.5950505E-001	-5.074862106074857E-003	2.8394109E-006
2	0	0	1	6.694399830885232E+000	-5.6440544E-001	-5.6448257E-001	-5.269833841808617E-003	2.9747293E-006
2	0	0	1	6.744399829622125E+000	-5.6940216E-001	-5.6949031E-001	-5.468149271821099E-003	3.1140580E-006
2	0	0	0	6.794599828353967E+000	-5.7442451E-001	-5.7452053E-001	-5.674037842970880E-003	3.2598512E-006
2	0	0	0	6.844599827090860E+000	-5.7942444E-001	-5.7950187E-001	-5.895839249795004E-003	3.4166499E-006
2	0	0	0	6.894599825827754E+000	-5.8442295E-001	-5.8449966E-001	-6.122963916268046E-003	3.5788703E-006
2	0	0	1	6.944799824559595E+000	-5.8944541E-001	-5.8952981E-001	-6.367190015091201E-003	3.7536483E-006
2	0	0	1	6.994799823296489E+000	-5.9444273E-001	-5.9453499E-001	-6.613990883078125E-003	3.9322490E-006
2	0	0	1	7.044799822033383E+000	-5.9944379E-001	-5.9953737E-001	-6.867658833642104E-003	4.1174180E-006
2	0	0	0	7.094899820767751E+000	-6.0445553E-001	-6.0453159E-001	-7.135345843877511E-003	4.3135419E-006
2	0	0	0	7.144999819502118E+000	-6.0946256E-001	-6.0954750E-001	-7.414693357759378E-003	4.5196080E-006
2	0	0	0	7.194999818239012E+000	-6.1446470E-001	-6.1455131E-001	-7.700655061772560E-003	4.7324475E-006
2	0	0	1	7.245099816973379E+000	-6.1947441E-001	-6.1955541E-001	-7.994177966306040E-003	4.9528362E-006
2	0	0	1	7.295199815707747E+000	-6.2448281E-001	-6.2458497E-001	-8.298776194945401E-003	5.1832908E-006
2	0	0	1	7.345199814444641E+000	-6.2948531E-001	-6.2957275E-001	-8.612668269817075E-003	5.4223015E-006
2	0	0	0	7.395299813179008E+000	-6.3449299E-001	-6.3458085E-001	-8.939233456536591E-003	5.6726662E-006
2	0	0	0	7.445399811913376E+000	-6.3950419E-001	-6.3956755E-001	-9.285420405378789E-003	5.9386534E-006
2	0	0	0	7.495399810650270E+000	-6.4450538E-001	-6.4456493E-001	-9.636114491843470E-003	6.2111012E-006
2	0	0	0	7.545399809387163E+000	-6.4950264E-001	-6.4957231E-001	-1.000034478749817E-002	6.4959472E-006
2	0	0	1	7.610599807740073E+000	-6.5602595E-001	-6.5606499E-001	-1.049411396532089E-002	6.8848208E-006
2	0	0	1	7.675599806098035E+000	-6.6252476E-001	-6.6257471E-001	-1.100030221816678E-002	7.2885218E-006
2	0	0	0	7.725699804832402E+000	-6.6753417E-001	-6.6757870E-001	-1.141418398935212E-002	7.6198662E-006
2	0	0	0	7.775799803566770E+000	-6.7254353E-001	-6.7258918E-001	-1.183505768733881E-002	7.9601314E-006
2	0	0	0	7.825799802303663E+000	-6.7754585E-001	-6.7759949E-001	-1.226955959492099E-002	8.3138475E-006
2	0	0	1	7.875899801038031E+000	-6.8255311E-001	-6.8259752E-001	-1.271034811627034E-002	8.6760519E-006
2	0	0	1	7.925999799772399E+000	-6.8756402E-001	-6.8760848E-001	-1.317612514380942E-002	9.0600151E-006
2	0	0	1	7.975999798509292E+000	-6.9256526E-001	-6.9260859E-001	-1.365748947077358E-002	9.4592942E-006
2	0	0	1	8.025999797246186E+000	-6.9756287E-001	-6.9761866E-001	-1.414998566113795E-002	9.8712944E-006
2	0	0	0	8.076199795978027E+000	-7.0258498E-001	-7.0263302E-001	-1.465311751506651E-002	1.0295765E-005
2	0	0	0	8.126199794714921E+000	-7.0758408E-001	-7.0763540E-001	-1.518343571900377E-002	1.0744337E-005
2	0	0	0	8.176199793451815E+000	-7.1258402E-001	-7.1264583E-001	-1.570856518446806E-002	1.1194644E-005
2	0	0	1	8.226399792183656E+000	-7.1760613E-001	-7.1765012E-001	-1.627088486264974E-002	1.1676802E-005
2	0	0	1	8.276399790920550E+000	-7.2260261E-001	-7.2263527E-001	-1.683857646547370E-002	1.2168150E-005
2	0	0	1	8.326399789657444E+000	-7.2760463E-001	-7.2764581E-001	-1.743445187142414E-002	1.2686106E-005
2	0	0	0	8.376499788391811E+000	-7.3261529E-001	-7.3264766E-001	-1.803180956815052E-002	1.3210963E-005
2	0	0	0	8.426599787126179E+000	-7.3762304E-001	-7.3765695E-001	-1.865120776847067E-002	1.3758193E-005
2	0	0	0	8.476599785863073E+000	-7.4262542E-001	-7.4267018E-001	-1.928799247837047E-002	1.4324617E-005
2	0	0	1	8.526699784597440E+000	-7.4763441E-001	-7.4766940E-001	-1.992181888273617E-002	1.4894935E-005
2	0	0	1	8.576799783331808E+000	-7.5264382E-001	-7.5267994E-001	-2.058312176660504E-002	1.5492504E-005
2	0	0	1	8.626799782068701E+000	-7.5764620E-001	-7.5769764E-001	-2.126557312173299E-002	1.6112874E-005
2	0	0	0	8.676899780803069E+000	-7.6265275E-001	-7.6270115E-001	-2.196672521089862E-002	1.6754047E-005
2	0	0	0	8.726999779537437E+000	-7.6766455E-001	-7.6771712E-001	-2.269056080563919E-002	1.7419932E-005
2	0	0	0	8.776999778274330E+000	-7.7266538E-001	-7.7271801E-001	-2.341909257355890E-002	1.8096354E-005
2	0	0	0	8.826999777011224E+000	-7.7766347E-001	-7.7770919E-001	-2.416237234911479E-002	1.8791299E-005
2	0	0	1	8.877199775743065E+000	-7.8268552E-001	-7.8273100E-001	-2.493063398421569E-002	1.9513980E-005
2	0	0	1	8.927199774479959E+000	-7.8768390E-001	-7.8774250E-001	-2.572872244505658E-002	2.0267607E-005
2	0	0	1	8.977199773216853E+000	-7.9268408E-001	-7.9275280E-001	-2.652344201532669E-002	2.1026533E-005
2	0	0	0	9.027399771948694E+000	-7.9770601E-001	-7.9776555E-001	-2.735062572604041E-002	2.1819387E-005
2	0	0	0	9.077399770685588E+000	-8.0270272E-001	-8.0275851E-001	-2.817580490729199E-002	2.2618367E-005
2	0	0	0	9.127399769422482E+000	-8.0770510E-001	-8.0777466E-001	-2.902323257451117E-002	2.3444232E-005
2	0	0	1	9.177499768156849E+000	-8.1271553E-001	-8.1278497E-001	-2.991126386588178E-002	2.4311426E-005
2	0	0	1	9.227599766891217E+000	-8.1772327E-001	-8.1779033E-001	-3.080559862356910E-002	2.5192521E-005
2	0	0	1	9.277599765628111E+000	-8.2272601E-001	-8.2279664E-001	-3.170525375059252E-002	2.6086977E-005
2	0	0	0	9.327699764362478E+000	-8.2773381E-001	-8.2780850E-001	-3.262035653972317E-002	2.7003409E-005
2	0	0	0	9.377799763096846E+000	-8.3274400E-001	-8.3281124E-001	-3.356266879807390E-002	2.7951368E-005
2	0	0	0	9.427799761833739E+000	-8.3774650E-001	-8.3780777E-001	-3.452927284926663E-002	2.8928893E-005
2	0	0	0	9.477799760570633E+000	-8.4274310E-001	-8.4280044E-001	-3.550192062737778E-002	2.9921035E-005
2	0	0	1	9.527999759302475E+000	-8.4776515E-001	-8.4783429E-001	-3.649958895888961E-002	3.0945605E-005
2	0	0	1	9.577999758039368E+000	-8.5276520E-001	-8.5283512E-001	-3.751663411071771E-002	3.1995503E-005
2	0	0	1	9.627999756776262E+000	-8.5776341E-001	-8.5783392E-001	-3.854572789236181E-002	3.3065833E-005
2	0	0	0	9.678199755508103E+000	-8.6278588E-001	-8.6285305E-001	-3.959095724775297E-002	3.4161178E-005
2	0	0	0	9.728199754244997E+000	-8.6778378E-001	-8.6786956E-001	-4.063291983599915E-002	3.5264075E-005
2	0	0	0	9.778199752981891E+000	-8.7278473E-001	-8.7284690E-001	-4.173613196787729E-002	3.6429254E-005
2	0	0	1	9.828299751716258E+000	-8.7779659E-001	-8.7785977E-001	-4.285188171051457E-002	3.7617941E-005
2	0	0	1	9.878399750450626E+000	-8.8280290E-001	-8.8284999E-001	-4.395375212338171E-002	3.8804570E-005
2	0	0	1	9.928399749187520E+000	-8.8780546E-001	-8.8787580E-001	-4.509441573860853E-002	4.0038241E-005
2	0	0	0	9.978499747921887E+000	-8.9281476E-001	-8.9287454E-001	-4.625431074337041E-002	4.1299296E-005
2	0	0	0	1.002859974665625E+001	-8.9782363E-001	-8.9787930E-001	-4.743056638499210E-002	4.2586922E-005
2	0	0	0	1.007859974539315E+001	-9.0282625E-001	-9.0288192E-001	-4.862051293201364E-002	4.3898581E-005
2	0	0	1	1.012869974412752E+001	-9.0783417E-001	-9.0789437E-001	-4.983090762845477E-002	4.5241202E-005
2	0	0	1	1.017879974286188E+001	-9.1284448E-001	-9.1289783E-001	-5.105366916887313E-002	4.6606783E-005
2	0	0	1	1.022879974159878E+001	-9.1784650E-001	-9.1789430E-001	-5.229151551155903E-002	4.7998084E-005
2	0	0	1	1.027879974033567E+001	-9.2284292E-001	-9.2289215E-001	-5.355348616074118E-002	4.9424092E-005
2	0	0	0	1.032899973906751E+001	-9.2786527E-001	-9.2792588E-001	-5.484181810618671E-002	5.0889143E-005
2	0	0	0	1.037899973780441E+001	-9.3286502E-001	-9.3293047E-001	-5.612828706550910E-002	5.2363790E-005
2	0	0	0	1.042899973654130E+001	-9.3786418E-001	-9.3791860E-001	-5.744419251103403E-002	5.3877975E-005
2	0	0	1	1.047919973527314E+001	-9.4288629E-001	-9.4293934E-001	-5.879652240109279E-002	5.5441553E-005
2	0	0	1	1.052919973401004E+001	-9.4788396E-001	-9.4794154E-001	-6.014816798061159E-002	5.7016947E-005
2	0	0	1	1.057919973274693E+001	-9.5288455E-001	-9.5294690E-001	-6.152401667193641E-002	5.8629121E-005
2	0	0	0	1.062929973148130E+001	-9.5789599E-001	-9.5792001E-001	-6.293058572052956E-002	6.0282469E-005
2	0	0	0	1.067939973021566E+001	-9.6290326E-001	-9.6294457E-001	-6.435125119529417E-002	6.1966690E-005
2	0	0	0	1.072939972895256E+001	-9.6790576E-001	-9.6796191E-001	-6.577971784449654E-002	6.3672262E-005
2	0	0	1	1.077949972768693E+001	-9.7291505E-001	-9.7296494E-001	-6.719797947926665E-002	6.5381275E-005
2	0	0	1	1.082959972642129E+001	-9.7792417E-001	-9.7797823E-001	-6.866398649062067E-002	6.7151886E-005
2	0	0	1	1.087959972515819E+001	-9.8292679E-001	-9.8298842E-001	-7.016574736007797E-002	6.8972120E-005
2	0	0	0	1.092969972389255E+001	-9.8793334E-001	-9.8798388E-001	-7.166584457254799E-002	7.0804701E-005
2	0	0	0	1.097979972262692E+001	-9.9294472E-001	-9.9298644E-001	-7.320988071955559E-002	7.2696421E-005
2	0	0	0	1.102749972142192E+001	-9.9771571E-001	-9.9774700E-001	-7.467061359655025E-002	7.4502379E-005
2	0	0	1	1.105039972084342E+001	-1.0000215E+000	-1.0000570E+000	-7.540047168731689E-002	7.5404765E-005