EC-Lab ASCII FILE
Nb header lines : 55                          

I-V Characterization

Run on channel : 1 (SN 6514)
User : 
CE vs. WE compliance from -10 V to 10 V
Electrode connection : standard
Ewe ctrl range : min = -1.10 V, max = 0.20 V
Safety Limits :
	Do not start on E overload
Acquisition started on : 06/15/2016 19:04:14
Saved on :
	File : B125-G54-UN-G-D1GB-C14 BW 100mVs dark_C01.mpr
	Directory : E:\EC-Lab measurements\B125-G54-UN-G-D1GB\
	Host : 10.0.2.15
Device : VSP (SN 0295)
Address : USB
EC-Lab for windows v11.01 (software)
Internet server v11.00 (firmware)
Command interpretor v11.00 (firmware)
Electrode material : 
Initial state : 
Electrolyte : 
Comments : 
Electrode surface area : 0.001 cm²
Characteristic mass : 0.001 g
Equivalent Weight : 0.000 g/eq.
Density : 0.000 g/cm3
tR (h:m:s)          0:00:0.0000         
dER/dt (mV/h)       0.0                 
dER (mV)            0                   
dtR (s)             0.0000              
dE/dt               100.000             
dE/dt unit          mV/s                
Ei (V)              -1.000              
vs.                 Ref                 
EL (V)              0.100               
vs.                 Ref                 
record              <I>                 
dI                  0.000               
unit dI             µA                  
tI (s)              0.1000              
step percent        100                 
N                   100                 
E range min (V)     -1.100              
E range max (V)     0.200               
I Range             Auto                
I Range min         Unset               
I Range max         Unset               
I Range init        Unset               
Bandwidth           5                   

mode	ox/red	error	control changes	time/s	control/V	Ewe/V	<I>/mA	P/W
2	1	0	1	8.039999796892516E-002	-9.9701774E-001	-9.9702042E-001	-8.558895811438560E-002	8.5333937E-005
2	1	0	0	1.057999973272672E-001	-9.9448204E-001	-9.9449229E-001	-8.600140658397359E-002	8.5527739E-005
2	1	0	0	1.557999960641610E-001	-9.8948532E-001	-9.8951250E-001	-8.746519955773868E-002	8.6547909E-005
2	1	0	0	2.057999948010547E-001	-9.8448354E-001	-9.8452860E-001	-8.899152591566706E-002	8.7614702E-005
2	1	0	1	2.558999935354223E-001	-9.7947323E-001	-9.7949499E-001	-9.019750082783862E-002	8.8348002E-005
2	1	0	1	3.059999922697898E-001	-9.7446513E-001	-9.7449285E-001	-9.100736291015332E-002	8.8686022E-005
2	1	0	1	3.559999910066836E-001	-9.6946311E-001	-9.6949160E-001	-9.157549874229121E-002	8.8781679E-005
2	1	0	0	4.060999897410511E-001	-9.6445435E-001	-9.6448255E-001	-9.181568310361832E-002	8.8554625E-005
2	1	0	0	4.561999884754187E-001	-9.5944411E-001	-9.5944047E-001	-9.177052691102672E-002	8.8048357E-005
2	1	0	0	5.061999872123124E-001	-9.5444167E-001	-9.5444214E-001	-9.145741172194907E-002	8.7290806E-005
2	1	0	1	5.562999859466800E-001	-9.4943595E-001	-9.4947428E-001	-9.090920793831647E-002	8.6315951E-005
2	1	0	1	6.063999846810475E-001	-9.4442326E-001	-9.4447148E-001	-9.019268497313515E-002	8.5184416E-005
2	1	0	1	6.563999834179413E-001	-9.3942344E-001	-9.3945992E-001	-8.932398889271986E-002	8.3916304E-005
2	1	0	1	7.063999821548350E-001	-9.3442500E-001	-9.3446857E-001	-8.829682209714640E-002	8.2510604E-005
2	1	0	0	7.565999808866763E-001	-9.2940253E-001	-9.2944199E-001	-8.708630981834520E-002	8.0941674E-005
2	1	0	0	8.065999796235701E-001	-9.2440414E-001	-9.2444623E-001	-8.582687178345316E-002	7.9342324E-005
2	1	0	0	8.565999783604639E-001	-9.1940427E-001	-9.1944695E-001	-8.434664233322664E-002	7.7552264E-005
2	1	0	1	9.066999770948314E-001	-9.1439182E-001	-9.1442585E-001	-8.278474479180753E-002	7.5700511E-005
2	1	0	1	9.567999758291990E-001	-9.0938574E-001	-9.0941590E-001	-8.111365000681625E-002	7.3766045E-005
2	1	0	1	1.006799974566093E+000	-9.0438330E-001	-9.0442061E-001	-7.945745221838352E-002	7.1862960E-005
2	1	0	0	1.056899973300460E+000	-8.9937329E-001	-8.9940304E-001	-7.774495280959703E-002	6.9924048E-005
2	1	0	0	1.106999972034828E+000	-8.9436448E-001	-8.9438933E-001	-7.590615105579468E-002	6.7889654E-005
2	1	0	0	1.156999970771722E+000	-8.8936234E-001	-8.8940042E-001	-7.406540758642732E-002	6.5873806E-005
2	1	0	1	1.207099969506089E+000	-8.8435465E-001	-8.8439333E-001	-7.220769494518708E-002	6.3860003E-005
2	1	0	1	1.257199968240457E+000	-8.7934387E-001	-8.7937993E-001	-7.040947085980709E-002	6.1916675E-005
2	1	0	1	1.307199966977350E+000	-8.7434238E-001	-8.7439162E-001	-6.854716917291759E-002	5.9937069E-005
2	1	0	1	1.357199965714244E+000	-8.6934537E-001	-8.6939067E-001	-6.670299865461710E-002	5.7990965E-005
2	1	0	0	1.407399964446086E+000	-8.6432290E-001	-8.6438602E-001	-6.495200689931324E-002	5.6143606E-005
2	1	0	0	1.457399963182979E+000	-8.5932308E-001	-8.5936880E-001	-6.322113225811932E-002	5.4330270E-005
2	1	0	0	1.507399961919873E+000	-8.5432488E-001	-8.5438234E-001	-6.149049135477547E-002	5.2536390E-005
2	1	0	1	1.557599960651714E+000	-8.4930193E-001	-8.4934831E-001	-5.978500292123079E-002	5.0778290E-005
2	1	0	1	1.607599959388608E+000	-8.4430480E-001	-8.4434927E-001	-5.816300809615271E-002	4.9109894E-005
2	1	0	1	1.657599958125502E+000	-8.3930373E-001	-8.3933276E-001	-5.661262362852715E-002	4.7516831E-005
2	1	0	0	1.707699956859869E+000	-8.3429205E-001	-8.3434540E-001	-5.505434264462206E-002	4.5934339E-005
2	1	0	0	1.757799955594237E+000	-8.2928479E-001	-8.2933295E-001	-5.360188155706580E-002	4.4453805E-005
2	1	0	0	1.807799954331131E+000	-8.2428300E-001	-8.2433295E-001	-5.222493339731138E-002	4.3050735E-005
2	1	0	1	1.857899953065498E+000	-8.1927323E-001	-8.1931436E-001	-5.082285951306176E-002	4.1639898E-005
2	1	0	1	1.907999951799866E+000	-8.1426448E-001	-8.1431693E-001	-4.949252885253164E-002	4.0302602E-005
2	1	0	1	1.957999950536760E+000	-8.0926222E-001	-8.0931282E-001	-4.825235676851669E-002	3.9051250E-005
2	1	0	0	2.008099949271127E+000	-8.0425471E-001	-8.0428886E-001	-4.710981351000954E-002	3.7889899E-005
2	1	0	0	2.058199948005495E+000	-7.9924345E-001	-7.9928821E-001	-4.593287087327580E-002	3.6713602E-005
2	1	0	0	2.108199946742388E+000	-7.9424208E-001	-7.9427040E-001	-4.482603423932675E-002	3.5603993E-005
2	1	0	0	2.158199945479282E+000	-7.8924501E-001	-7.8927809E-001	-4.375834154007363E-002	3.4537501E-005
2	1	0	1	2.208399944211124E+000	-7.8422248E-001	-7.8426063E-001	-4.268852096201992E-002	3.3478926E-005
2	1	0	1	2.258399942948017E+000	-7.7922368E-001	-7.7925891E-001	-4.171204979388821E-002	3.2504486E-005
2	1	0	1	2.308399941684911E+000	-7.7422422E-001	-7.7425236E-001	-4.070924964902522E-002	3.1519234E-005
2	1	0	0	2.358599940416752E+000	-7.6920170E-001	-7.6923651E-001	-3.975153885196014E-002	3.0578336E-005
2	1	0	0	2.408599939153646E+000	-7.6420462E-001	-7.6423866E-001	-3.886791764469694E-002	2.9704364E-005
2	1	0	0	2.458599937890540E+000	-7.5920343E-001	-7.5922877E-001	-3.797507644334418E-002	2.8831770E-005
2	1	0	1	2.508699936624907E+000	-7.5419205E-001	-7.5421244E-001	-3.707227955590575E-002	2.7960374E-005
2	1	0	1	2.558799935359275E+000	-7.4918509E-001	-7.4920815E-001	-3.622494915232843E-002	2.7140028E-005
2	1	0	1	2.608799934096169E+000	-7.4418253E-001	-7.4419498E-001	-3.540565485784547E-002	2.6348711E-005
2	1	0	0	2.658899932830536E+000	-7.3917359E-001	-7.3919350E-001	-3.460627813821435E-002	2.5580735E-005
2	1	0	0	2.708999931564904E+000	-7.3416376E-001	-7.3418510E-001	-3.378440926222015E-002	2.4804011E-005
2	1	0	0	2.758999930301798E+000	-7.2916180E-001	-7.2917461E-001	-3.297876455404525E-002	2.4047278E-005
2	1	0	1	2.809099929036165E+000	-7.2415465E-001	-7.2416401E-001	-3.222554459854687E-002	2.3336579E-005
2	1	0	1	2.859199927770533E+000	-7.1914309E-001	-7.1915001E-001	-3.155037118727111E-002	2.2689450E-005
2	1	0	1	2.909199926507426E+000	-7.1414250E-001	-7.1417171E-001	-3.084572157247278E-002	2.2029142E-005
2	1	0	1	2.959199925244320E+000	-7.0914459E-001	-7.0917398E-001	-3.012775481006472E-002	2.1365820E-005
2	1	0	0	3.009399923976162E+000	-7.0412219E-001	-7.0414704E-001	-2.945250172583158E-002	2.0738891E-005
2	1	0	0	3.059399922713055E+000	-6.9912356E-001	-6.9915301E-001	-2.879703709649784E-002	2.0133535E-005
2	1	0	0	3.109399921449949E+000	-6.9412351E-001	-6.9414902E-001	-2.813981742607391E-002	1.9533227E-005
2	1	0	1	3.159599920181790E+000	-6.8910110E-001	-6.8911052E-001	-2.749676437717807E-002	1.8948309E-005
2	1	0	1	3.209599918918684E+000	-6.8410498E-001	-6.8412316E-001	-2.683448047027700E-002	1.8358089E-005
2	1	0	1	3.259599917655578E+000	-6.7910290E-001	-6.7913121E-001	-2.622225723979468E-002	1.7808354E-005
2	1	0	0	3.309699916389945E+000	-6.7409253E-001	-6.7411226E-001	-2.563635173027468E-002	1.7281778E-005
2	1	0	0	3.359799915124313E+000	-6.6908419E-001	-6.6911322E-001	-2.503493350829289E-002	1.6751204E-005
2	1	0	0	3.409799913861207E+000	-6.6408187E-001	-6.6410172E-001	-2.445121004841866E-002	1.6238091E-005
2	1	0	1	3.459899912595574E+000	-6.5907335E-001	-6.5909910E-001	-2.393159381324889E-002	1.5773292E-005
2	1	0	1	3.509999911329942E+000	-6.5406352E-001	-6.5408683E-001	-2.340373969696687E-002	1.5308078E-005
2	1	0	1	3.559999910066836E+000	-6.4906120E-001	-6.4909834E-001	-2.286499667305703E-002	1.4841631E-005
2	1	0	0	3.610099908801203E+000	-6.4405495E-001	-6.4408618E-001	-2.233557301117117E-002	1.4386034E-005
2	1	0	0	3.660199907535571E+000	-6.3904268E-001	-6.3909823E-001	-2.182797097235362E-002	1.3950217E-005
2	1	0	0	3.710199906272464E+000	-6.3404244E-001	-6.3410836E-001	-2.129978066552918E-002	1.3506369E-005
2	1	0	0	3.760199905009358E+000	-6.2904376E-001	-6.2911659E-001	-2.080098632601790E-002	1.3086245E-005
2	1	0	1	3.810399903741200E+000	-6.2402147E-001	-6.2407911E-001	-2.029139067382169E-002	1.2663433E-005
2	1	0	1	3.860399902478093E+000	-6.1902386E-001	-6.1907858E-001	-1.982606595640206E-002	1.2273893E-005
2	1	0	1	3.910399901214987E+000	-6.1402321E-001	-6.1408490E-001	-1.936823350947656E-002	1.1893740E-005
2	1	0	0	3.960499899949355E+000	-6.0901147E-001	-6.0906690E-001	-1.888863911922567E-002	1.1504445E-005
2	1	0	0	4.010599898683722E+000	-6.0400480E-001	-6.0406536E-001	-1.845518129095386E-002	1.1148136E-005
2	1	0	0	4.060599897420616E+000	-5.9900218E-001	-5.9905386E-001	-1.799350267906272E-002	1.0779077E-005
2	1	0	1	4.110699896154983E+000	-5.9399223E-001	-5.9405428E-001	-1.758300138491048E-002	1.0445257E-005
2	1	0	1	4.160799894889351E+000	-5.8898419E-001	-5.8903551E-001	-1.716017177200356E-002	1.0107950E-005
2	1	0	1	4.210799893626245E+000	-5.8398151E-001	-5.8403313E-001	-1.673016541210032E-002	9.7709708E-006
2	1	0	0	4.260899892360612E+000	-5.7897395E-001	-5.7903248E-001	-1.632665453338390E-002	9.4536636E-006
2	1	0	0	4.310999891094980E+000	-5.7396317E-001	-5.7402086E-001	-1.592441068904045E-002	9.1409438E-006
2	1	0	0	4.360999889831874E+000	-5.6896132E-001	-5.6902438E-001	-1.553447045435707E-002	8.8394927E-006
2	1	0	0	4.410999888568767E+000	-5.6396431E-001	-5.6401819E-001	-1.515660286234463E-002	8.5485999E-006
2	1	0	1	4.461199887300609E+000	-5.5894214E-001	-5.5901420E-001	-1.479404272660290E-002	8.2700799E-006
2	1	0	1	4.511199886037502E+000	-5.5394256E-001	-5.5402148E-001	-1.442401912466540E-002	7.9912161E-006
2	1	0	1	4.561199884774396E+000	-5.4894394E-001	-5.4900932E-001	-1.405809597517071E-002	7.7180257E-006
2	1	0	0	4.611399883506238E+000	-5.4392171E-001	-5.4396951E-001	-1.370393434464862E-002	7.4545223E-006
2	1	0	0	4.661399882243131E+000	-5.3892392E-001	-5.3898120E-001	-1.334375294028714E-002	7.1920322E-006
2	1	0	0	4.711399880980025E+000	-5.3392267E-001	-5.3397083E-001	-1.301258375723502E-002	6.9483403E-006
2	1	0	1	4.761499879714393E+000	-5.2891129E-001	-5.2897042E-001	-1.267919425929982E-002	6.7069186E-006
2	1	0	1	4.811599878448760E+000	-5.2390456E-001	-5.2396584E-001	-1.237171422868606E-002	6.4823557E-006
2	1	0	1	4.861599877185654E+000	-5.1890206E-001	-5.1896095E-001	-1.205092333979105E-002	6.2539589E-006
2	1	0	0	4.911699875920021E+000	-5.1389301E-001	-5.1395386E-001	-1.175385404597473E-002	6.0409388E-006
2	1	0	0	4.961799874654389E+000	-5.0888366E-001	-5.0894904E-001	-1.146970849577059E-002	5.8374972E-006
2	1	0	0	5.011799873391283E+000	-5.0388110E-001	-5.0392956E-001	-1.117068220271952E-002	5.6292370E-006
2	1	0	1	5.061899872125650E+000	-4.9887377E-001	-4.9892768E-001	-1.086018076974204E-002	5.4184447E-006
2	1	0	1	5.111999870860018E+000	-4.9386290E-001	-4.9390393E-001	-1.057039715343661E-002	5.2207606E-006
2	1	0	1	5.161999869596912E+000	-4.8886135E-001	-4.8890382E-001	-1.030513615750261E-002	5.0382205E-006
2	1	0	1	5.211999868333805E+000	-4.8386440E-001	-4.8391375E-001	-1.003034258457999E-002	4.8538209E-006
2	1	0	0	5.262199867065647E+000	-4.7884208E-001	-4.7887021E-001	-9.742869137626502E-003	4.6655700E-006
2	1	0	0	5.312199865802540E+000	-4.7384280E-001	-4.7387788E-001	-9.481862153538499E-003	4.4932449E-006
2	1	0	0	5.362199864539434E+000	-4.6884316E-001	-4.6887094E-001	-9.233817551121612E-003	4.3294685E-006
2	1	0	1	5.412399863271276E+000	-4.6382102E-001	-4.6384737E-001	-8.992702753821021E-003	4.1712415E-006
2	1	0	1	5.462399862008169E+000	-4.5882407E-001	-4.5886210E-001	-8.738038815643445E-003	4.0095547E-006
2	1	0	1	5.512399860745063E+000	-4.5382258E-001	-4.5385590E-001	-8.494976739210638E-003	3.8554954E-006
2	1	0	0	5.562499859479431E+000	-4.4881183E-001	-4.4883132E-001	-8.280283570482619E-003	3.7164507E-006
2	1	0	0	5.612599858213798E+000	-4.4380426E-001	-4.4382998E-001	-8.048756274889671E-003	3.5722794E-006
2	1	0	0	5.662599856950692E+000	-4.3880165E-001	-4.3884286E-001	-7.824487299873562E-003	3.4337204E-006
2	1	0	1	5.712699855685059E+000	-4.3379283E-001	-4.3382210E-001	-7.612077322606020E-003	3.3022873E-006
2	1	0	1	5.762799854419427E+000	-4.2878339E-001	-4.2880663E-001	-7.400523799888092E-003	3.1733937E-006
2	1	0	1	5.812799853156321E+000	-4.2378068E-001	-4.2381725E-001	-7.180467943366797E-003	3.0432061E-006
2	1	0	0	5.862899851890688E+000	-4.1877443E-001	-4.1880482E-001	-6.965323286699028E-003	2.9171110E-006
2	1	0	0	5.912999850625056E+000	-4.1376236E-001	-4.1379327E-001	-6.775058153800501E-003	2.8034735E-006
2	1	0	0	5.962999849361950E+000	-4.0876165E-001	-4.0878800E-001	-6.575296141534650E-003	2.6879022E-006
2	1	0	0	6.012999848098843E+000	-4.0376371E-001	-4.0379605E-001	-6.385025762407653E-003	2.5782481E-006
2	1	0	1	6.063199846830685E+000	-3.9874166E-001	-3.9877367E-001	-6.200677289099479E-003	2.4726669E-006
2	1	0	1	6.113199845567578E+000	-3.9374283E-001	-3.9378315E-001	-6.014608900063639E-003	2.3684518E-006
2	1	0	1	6.163199844304472E+000	-3.8874316E-001	-3.8878343E-001	-5.839562567944538E-003	2.2703252E-006
2	1	0	0	6.213399843036314E+000	-3.8372070E-001	-3.8374946E-001	-5.660002177931781E-003	2.1720227E-006
2	1	0	0	6.263399841773207E+000	-3.7872419E-001	-3.7875795E-001	-5.495378710596167E-003	2.0814184E-006
2	1	0	0	6.313399840510101E+000	-3.7372214E-001	-3.7374753E-001	-5.337780540188880E-003	1.9949823E-006
2	1	0	1	6.363499839244469E+000	-3.6871180E-001	-3.6875898E-001	-5.165121123578094E-003	1.9046847E-006
2	1	0	1	6.413599837978836E+000	-3.6370355E-001	-3.6375061E-001	-4.992858845880299E-003	1.8161554E-006
2	1	0	1	6.463599836715730E+000	-3.5870126E-001	-3.5874799E-001	-4.838758619019069E-003	1.7358949E-006
2	1	0	0	6.528799835068639E+000	-3.5218269E-001	-3.5218704E-001	-4.639597476742308E-003	1.6340061E-006
2	1	0	0	6.593799833426601E+000	-3.4568298E-001	-3.4569338E-001	-4.433352093181735E-003	1.5325804E-006
2	1	0	0	6.643799832163495E+000	-3.4068272E-001	-3.4069008E-001	-4.284665002634451E-003	1.4597429E-006
2	1	0	1	6.693899830897863E+000	-3.3567062E-001	-3.3566526E-001	-4.137301884751768E-003	1.3887485E-006
2	1	0	1	6.743999829632230E+000	-3.3066416E-001	-3.3066201E-001	-4.006243795818869E-003	1.3247127E-006
2	1	0	1	6.793999828369124E+000	-3.2566193E-001	-3.2567734E-001	-3.866325425216609E-003	1.2591746E-006
2	1	0	0	6.844099827103491E+000	-3.2065192E-001	-3.2068613E-001	-3.732703791565976E-003	1.1970263E-006
2	1	0	0	6.894199825837859E+000	-3.1564322E-001	-3.1567416E-001	-3.599840125446556E-003	1.1363765E-006
2	1	0	0	6.944199824574753E+000	-3.1064099E-001	-3.1067622E-001	-3.465041192477744E-003	1.0765059E-006
2	1	0	1	6.994299823309120E+000	-3.0563313E-001	-3.0566114E-001	-3.350525250819497E-003	1.0241254E-006
2	1	0	1	7.044399822043488E+000	-3.0062249E-001	-3.0064821E-001	-3.234909512666279E-003	9.7256975E-007
2	1	0	1	7.094399820780382E+000	-2.9562041E-001	-2.9562619E-001	-3.115051771457086E-003	9.2089090E-007
2	1	0	1	7.144399819517275E+000	-2.9062420E-001	-2.9063162E-001	-3.000978664442357E-003	8.7217927E-007
2	1	0	0	7.194599818249117E+000	-2.8560165E-001	-2.8562003E-001	-2.882579684225658E-003	8.2332252E-007
2	1	0	0	7.244599816986010E+000	-2.8060198E-001	-2.8061798E-001	-2.786037842966910E-003	7.8181233E-007
2	1	0	0	7.294599815722904E+000	-2.7560332E-001	-2.7561334E-001	-2.670115523330602E-003	7.3591946E-007
2	1	0	1	7.344799814454746E+000	-2.7058104E-001	-2.7059889E-001	-2.576150646341441E-003	6.9710347E-007
2	1	0	1	7.394799813191639E+000	-2.6558304E-001	-2.6560280E-001	-2.464787535173540E-003	6.5465446E-007
2	1	0	1	7.444799811928533E+000	-2.6058257E-001	-2.6060486E-001	-2.365348853305702E-003	6.1642140E-007
2	1	0	0	7.494899810662901E+000	-2.5557077E-001	-2.5557256E-001	-2.260445081520554E-003	5.7770774E-007
2	1	0	0	7.544999809397268E+000	-2.5056386E-001	-2.5057200E-001	-2.171897264007239E-003	5.4421662E-007
2	1	0	0	7.594999808134162E+000	-2.4556150E-001	-2.4559629E-001	-2.070435345446014E-003	5.0849121E-007
2	1	0	1	7.645099806868529E+000	-2.4055216E-001	-2.4058871E-001	-1.985029097856966E-003	4.7757561E-007
2	1	0	1	7.695199805602897E+000	-2.3554309E-001	-2.3558173E-001	-1.878526132866681E-003	4.4254642E-007
2	1	0	1	7.745199804339791E+000	-2.3054074E-001	-2.3059236E-001	-1.800767469079829E-003	4.1524322E-007
2	1	0	0	7.795299803074158E+000	-2.2553341E-001	-2.2558707E-001	-1.716236355338985E-003	3.8716072E-007
2	1	0	0	7.845399801808526E+000	-2.2052212E-001	-2.2057964E-001	-1.630399773377575E-003	3.5963299E-007
2	1	0	0	7.895399800545420E+000	-2.1552096E-001	-2.1555908E-001	-1.554035390501019E-003	3.3498645E-007
2	1	0	0	7.945399799282313E+000	-2.1052375E-001	-2.1057697E-001	-1.481826801361930E-003	3.1203859E-007
2	1	0	1	7.995599798014155E+000	-2.0550132E-001	-2.0555915E-001	-1.400676057790047E-003	2.8792178E-007
2	1	0	1	8.045599796751048E+000	-2.0050195E-001	-2.0055845E-001	-1.316239618332172E-003	2.6398297E-007
2	1	0	1	8.095599795487942E+000	-1.9550297E-001	-1.9557019E-001	-1.245045764158702E-003	2.4349384E-007
2	1	0	0	8.145799794219784E+000	-1.9048049E-001	-1.9053596E-001	-1.174891370310941E-003	2.2385906E-007
2	1	0	0	8.195799792956677E+000	-1.8548346E-001	-1.8554156E-001	-1.110743286562913E-003	2.0608904E-007
2	1	0	0	8.245799791693571E+000	-1.8048203E-001	-1.8052498E-001	-1.048474557945833E-003	1.8927584E-007
2	1	0	1	8.295899790427939E+000	-1.7547080E-001	-1.7551190E-001	-9.737407409269386E-004	1.7090308E-007
2	1	0	1	8.345999789162306E+000	-1.7046335E-001	-1.7050570E-001	-9.067038453555686E-004	1.5459818E-007
2	1	0	1	8.395999787899200E+000	-1.6546123E-001	-1.6550511E-001	-8.536500653608357E-004	1.4128345E-007
2	1	0	0	8.446099786633567E+000	-1.6045216E-001	-1.6048415E-001	-7.927836796010304E-004	1.2722921E-007
2	1	0	0	8.496199785367935E+000	-1.5544266E-001	-1.5547256E-001	-7.352895158336155E-004	1.1431734E-007
2	1	0	0	8.546199784104829E+000	-1.5044034E-001	-1.5047884E-001	-6.823094681009632E-004	1.0267313E-007
2	1	0	1	8.596299782839196E+000	-1.4543350E-001	-1.4546977E-001	-6.182337984284112E-004	8.9934325E-008
2	1	0	1	8.646399781573564E+000	-1.4042175E-001	-1.4043592E-001	-5.603086863049736E-004	7.8687464E-008
2	1	0	1	8.696399780310458E+000	-1.3542098E-001	-1.3544115E-001	-5.092580623685472E-004	6.8974501E-008
2	1	0	1	8.746399779047351E+000	-1.3042350E-001	-1.3044220E-001	-4.624970697450067E-004	6.0329135E-008
2	1	0	0	8.796599777779193E+000	-1.2540098E-001	-1.2542725E-001	-4.093617190351496E-004	5.1345115E-008
2	1	0	0	8.846599776516086E+000	-1.2040234E-001	-1.2041282E-001	-3.687721925102652E-004	4.4404899E-008
2	1	0	0	8.896599775252980E+000	-1.1540260E-001	-1.1540571E-001	-3.178856326026473E-004	3.6685815E-008
2	1	0	1	8.946799773984822E+000	-1.1038000E-001	-1.1040594E-001	-2.746373004399163E-004	3.0321587E-008
2	1	0	1	8.996799772721715E+000	-1.0538353E-001	-1.0539871E-001	-2.246779347850867E-004	2.3680764E-008
2	1	0	1	9.046799771458609E+000	-1.0038175E-001	-1.0038271E-001	-1.897794652035963E-004	1.9050576E-008
2	1	0	0	9.096899770192977E+000	-9.5371015E-002	-9.5376626E-002	-1.434725841604157E-004	1.3683931E-008
2	1	0	0	9.146999768927344E+000	-9.0363219E-002	-9.0376638E-002	-1.048614313334899E-004	9.4770236E-009
2	1	0	0	9.196999767664238E+000	-8.5360803E-002	-8.5370876E-002	-6.458473851130356E-005	5.5136558E-009
2	1	0	1	9.247099766398605E+000	-8.0352269E-002	-8.0376342E-002	-2.609080088591714E-005	2.0970832E-009
2	1	0	1	9.297199765132973E+000	-7.5342260E-002	-7.5343534E-002	1.062009924604991E-005	8.0015583E-010
2	1	0	1	9.347199763869867E+000	-7.0339829E-002	-7.0338480E-002	4.744524005066795E-005	3.3372261E-009
2	1	0	0	9.397299762604234E+000	-6.5333568E-002	-6.5338947E-002	8.121090237021259E-005	5.3062350E-009
2	1	0	0	9.447399761338602E+000	-6.0321517E-002	-6.0334936E-002	1.152820509625070E-004	6.9555353E-009
2	1	0	0	9.497399760075496E+000	-5.5321116E-002	-5.5321369E-002	1.476648221008813E-004	8.1690201E-009
2	1	0	0	9.547399758812389E+000	-5.0322942E-002	-5.0338887E-002	1.812836508599570E-004	9.1256176E-009
2	1	0	1	9.597599757544231E+000	-4.5300569E-002	-4.5317475E-002	2.149006109679634E-004	9.7387529E-009
2	1	0	1	9.647599756281124E+000	-4.0302407E-002	-4.0312536E-002	2.472485907222659E-004	9.9672182E-009
2	1	0	1	9.697599755018018E+000	-3.5302233E-002	-3.5297025E-002	2.777599773566451E-004	9.8041006E-009
2	1	0	0	9.747699753752386E+000	-3.0289926E-002	-3.0301511E-002	3.091380963717364E-004	9.3673513E-009
2	1	0	0	9.797799752486753E+000	-2.5283698E-002	-2.5294054E-002	3.384294805021384E-004	8.5602538E-009
2	1	0	0	9.847799751223647E+000	-2.0281291E-002	-2.0276174E-002	3.689463356926926E-004	7.4808204E-009
2	1	0	1	9.897899749958015E+000	-1.5271211E-002	-1.5275436E-002	3.997718750390606E-004	6.1066894E-009
2	1	0	1	9.947999748692382E+000	-1.0262750E-002	-1.0304126E-002	4.304835735099942E-004	4.4357571E-009
2	1	0	1	9.997999747429276E+000	-5.2603451E-003	-5.2930177E-003	4.611561103058078E-004	2.4409075E-009
2	1	0	0	1.004809974616364E+001	-2.5249080E-004	-2.7139904E-004	4.917606618544982E-004	1.3346337E-010
2	1	0	0	1.009819974489801E+001	4.7579720E-003	4.7318391E-003	5.221523922114132E-004	2.4707412E-009
2	1	0	0	1.014819974363490E+001	9.7599523E-003	9.7294897E-003	5.529103776025397E-004	5.3795359E-009
2	1	0	0	1.019819974237180E+001	1.4756480E-002	1.4739885E-002	5.842872785931062E-004	8.6123269E-009
2	1	0	1	1.024839974110364E+001	1.9778853E-002	1.9766454E-002	6.159228255681951E-004	1.2174610E-008
2	1	0	1	1.029839973984053E+001	2.4778610E-002	2.4770454E-002	6.484232325131237E-004	1.6061737E-008
2	1	0	1	1.034839973857743E+001	2.9777348E-002	2.9764013E-002	6.805453555543614E-004	2.0255762E-008
2	1	0	0	1.039859973730927E+001	3.4799505E-002	3.4780305E-002	7.128658271304943E-004	2.4793691E-008
2	1	0	0	1.044859973604616E+001	3.9797269E-002	3.9780851E-002	7.462889406418538E-004	2.9688010E-008
2	1	0	0	1.049859973478306E+001	4.4798046E-002	4.4789456E-002	7.805712498235040E-004	3.4961360E-008
2	1	0	1	1.054869973351742E+001	4.9809698E-002	4.9795773E-002	8.164173693629047E-004	4.0654133E-008
2	1	0	1	1.059879973225179E+001	5.4816533E-002	5.4804474E-002	8.527835820265634E-004	4.6736357E-008
2	1	0	1	1.064879973098869E+001	5.9818923E-002	5.9821647E-002	8.908230974287428E-004	5.3290506E-008
2	1	0	0	1.069889972972305E+001	6.4828344E-002	6.4812936E-002	9.276332994093920E-004	6.0122638E-008
2	1	0	0	1.074899972845742E+001	6.9837220E-002	6.9828771E-002	9.672566794076973E-004	6.7542345E-008
2	1	0	0	1.079899972719431E+001	7.4839763E-002	7.4823573E-002	1.009279284719134E-003	7.5517882E-008
2	1	0	1	1.084909972592868E+001	7.9846978E-002	7.9829872E-002	1.049096484388999E-003	8.3749235E-008
2	1	0	1	1.089919972466305E+001	8.4858067E-002	8.4845379E-002	1.094002027763694E-003	9.2821018E-008
2	1	0	1	1.094919972339994E+001	8.9859344E-002	8.9841157E-002	1.138870569883068E-003	1.0231745E-007
2	1	0	1	1.099919972213684E+001	9.4856553E-002	9.4846599E-002	1.180852055836075E-003	1.1199980E-007
2	1	0	0	1.103729972117435E+001	9.8670453E-002	9.8658629E-002	1.216446290728056E-003	1.2001293E-007
2	1	0	0	1.105059972083836E+001	9.9997252E-002	1.0003239E-001	1.235337695106864E-003	1.2357378E-007