EC-Lab ASCII FILE
Nb header lines : 55                          

I-V Characterization

Run on channel : 1 (SN 6514)
User : 
CE vs. WE compliance from -10 V to 10 V
Electrode connection : standard
Ewe ctrl range : min = -1.10 V, max = 0.20 V
Safety Limits :
	Do not start on E overload
Acquisition started on : 06/15/2016 17:50:33
Saved on :
	File : B125-G54-UN-G-D1GB-C3 FW 100mVs dark_C01.mpr
	Directory : E:\EC-Lab measurements\B125-G54-UN-G-D1GB\
	Host : 10.0.2.15
Device : VSP (SN 0295)
Address : USB
EC-Lab for windows v11.01 (software)
Internet server v11.00 (firmware)
Command interpretor v11.00 (firmware)
Electrode material : 
Initial state : 
Electrolyte : 
Comments : 
Electrode surface area : 0.001 cm²
Characteristic mass : 0.001 g
Equivalent Weight : 0.000 g/eq.
Density : 0.000 g/cm3
tR (h:m:s)          0:00:0.0000         
dER/dt (mV/h)       0.0                 
dER (mV)            0                   
dtR (s)             0.0000              
dE/dt               100.000             
dE/dt unit          mV/s                
Ei (V)              0.100               
vs.                 Ref                 
EL (V)              -1.000              
vs.                 Ref                 
record              <I>                 
dI                  0.000               
unit dI             µA                  
tI (s)              0.1000              
step percent        100                 
N                   100                 
E range min (V)     -1.100              
E range max (V)     0.200               
I Range             Auto                
I Range min         Unset               
I Range max         Unset               
I Range init        Unset               
Bandwidth           5                   

mode	ox/red	error	control changes	time/s	control/V	Ewe/V	<I>/mA	P/W
2	0	0	1	8.039999796892516E-002	9.6991844E-002	9.6854463E-002	1.318200142122805E-003	1.2767357E-007
2	0	0	0	1.057999973272672E-001	9.4453573E-002	9.4377838E-002	1.159259904408622E-003	1.0940845E-007
2	0	0	0	1.710999956776504E-001	8.7927297E-002	8.7889589E-002	8.878985091095547E-004	7.8037033E-008
2	0	0	1	2.363999940280337E-001	8.1396982E-002	8.1326798E-002	6.948781947956999E-004	5.6512217E-008
2	0	0	1	2.863999927649274E-001	7.6395370E-002	7.6324314E-002	5.727012931977284E-004	4.3711033E-008
2	0	0	0	3.364999914992950E-001	7.1384393E-002	7.1298219E-002	4.674602391907387E-004	3.3329083E-008
2	0	0	0	3.865999902336625E-001	6.6376813E-002	6.6302136E-002	3.744389603025132E-004	2.4826102E-008
2	0	0	0	4.365999889705563E-001	6.1374731E-002	6.1290305E-002	2.962427135408943E-004	1.8156806E-008
2	0	0	1	4.866999877049238E-001	5.6365427E-002	5.6278810E-002	2.269629169228269E-004	1.2773203E-008
2	0	0	1	5.367999864392914E-001	5.1356319E-002	5.1266186E-002	1.652033023311502E-004	8.4693434E-009
2	0	0	1	5.867999851761851E-001	4.6354048E-002	4.6263501E-002	1.103968352015273E-004	5.1073439E-009
2	0	0	0	6.368999839105527E-001	4.1346505E-002	4.1245159E-002	6.203857703193394E-005	2.5587910E-009
2	0	0	0	6.869999826449202E-001	3.6335755E-002	3.6250103E-002	1.859180508115873E-005	6.7395484E-010
2	0	0	0	7.369999813818140E-001	3.1333897E-002	3.1244060E-002	-2.061969311049490E-005	6.4424294E-010
2	0	0	0	7.869999801187078E-001	2.6337266E-002	2.6250724E-002	-5.678639890363047E-005	1.4906840E-009
2	0	0	1	8.371999788505491E-001	2.1315014E-002	2.1215457E-002	-8.944524318877972E-005	1.8976218E-009
2	0	0	1	8.871999775874428E-001	1.6314963E-002	1.6224507E-002	-1.190881488743168E-004	1.9321464E-009
2	0	0	1	9.371999763243366E-001	1.1316729E-002	1.1216807E-002	-1.475514541784957E-004	1.6550562E-009
2	0	0	0	9.873999750561779E-001	6.2944721E-003	6.1868927E-003	-1.741143699237890E-004	1.0772270E-009
2	0	0	0	1.037399973793072E+000	1.2960363E-003	1.2020656E-003	-1.991233601385553E-004	2.3935934E-010
2	0	0	0	1.087399972529965E+000	-3.7038259E-003	-3.8210091E-003	-2.226165908343126E-004	8.5062002E-010
2	0	0	1	1.137599971261807E+000	-8.7261042E-003	-8.8367378E-003	-2.452877751983910E-004	2.1675437E-009
2	0	0	1	1.187599969998701E+000	-1.3722948E-002	-1.3817931E-002	-2.676095225956875E-004	3.6978098E-009
2	0	0	1	1.237599968735594E+000	-1.8724632E-002	-1.8790033E-002	-2.890575565824134E-004	5.4314011E-009
2	0	0	0	1.287699967469962E+000	-2.3735616E-002	-2.3814606E-002	-3.089960622785649E-004	7.3586195E-009
2	0	0	0	1.337799966204329E+000	-2.8742952E-002	-2.8828841E-002	-3.294019153772844E-004	9.4962758E-009
2	0	0	0	1.387799964941223E+000	-3.3745244E-002	-3.3835638E-002	-3.498465043881753E-004	1.1837280E-008
2	0	0	1	1.437899963675591E+000	-3.8754594E-002	-3.8826384E-002	-3.704027514961619E-004	1.4381399E-008
2	0	0	1	1.487999962409958E+000	-4.3763556E-002	-4.3851387E-002	-3.899167879985541E-004	1.7098392E-008
2	0	0	1	1.537999961146852E+000	-4.8765842E-002	-4.8854727E-002	-4.106490649832296E-004	2.0062147E-008
2	0	0	0	1.588099959881220E+000	-5.3773601E-002	-5.3854585E-002	-4.307314547820776E-004	2.3196863E-008
2	0	0	0	1.638199958615587E+000	-5.8784157E-002	-5.8866661E-002	-4.553599345341140E-004	2.6805520E-008
2	0	0	0	1.688199957352481E+000	-6.3786246E-002	-6.3867845E-002	-4.752188369932437E-004	3.0351202E-008
2	0	0	0	1.738199956089375E+000	-6.8782672E-002	-6.8865135E-002	-4.932566781648854E-004	3.3968188E-008
2	0	0	1	1.788399954821216E+000	-7.3804982E-002	-7.3890686E-002	-5.147633054148259E-004	3.8036212E-008
2	0	0	1	1.838399953558110E+000	-7.8805268E-002	-7.8878596E-002	-5.379615500071178E-004	4.2433651E-008
2	0	0	1	1.888399952295003E+000	-8.3803296E-002	-8.3893858E-002	-5.603980569105320E-004	4.7013955E-008
2	0	0	0	1.938599951026845E+000	-8.8825524E-002	-8.8910207E-002	-5.854027030730716E-004	5.2048275E-008
2	0	0	0	1.988599949763739E+000	-9.3824252E-002	-9.3888581E-002	-6.107629272775542E-004	5.7343666E-008
2	0	0	0	2.038599948500632E+000	-9.8824136E-002	-9.8886475E-002	-6.367524460626287E-004	6.2966208E-008
2	0	0	1	2.088799947232474E+000	-1.0384624E-001	-1.0392164E-001	-6.652899087241163E-004	6.9138018E-008
2	0	0	1	2.138799945969367E+000	-1.0884318E-001	-1.0892007E-001	-6.923165375389197E-004	7.5407165E-008
2	0	0	1	2.188799944706261E+000	-1.1384461E-001	-1.1393236E-001	-7.208423076194674E-004	8.2127265E-008
2	0	0	0	2.238899943440629E+000	-1.1885592E-001	-1.1892989E-001	-7.518550627345251E-004	8.9418045E-008
2	0	0	0	2.288999942174996E+000	-1.2386298E-001	-1.2392876E-001	-7.865533478414836E-004	9.7476580E-008
2	0	0	0	2.338999940911890E+000	-1.2886536E-001	-1.2893991E-001	-8.148412142391891E-004	1.0506555E-007
2	0	0	1	2.389099939646258E+000	-1.3387492E-001	-1.3395382E-001	-8.455832881072399E-004	1.1326912E-007
2	0	0	1	2.439199938380625E+000	-1.3888380E-001	-1.3895731E-001	-8.803443369305181E-004	1.2233028E-007
2	0	0	1	2.489199937117519E+000	-1.4388594E-001	-1.4398488E-001	-9.206480479877306E-004	1.3255941E-007
2	0	0	0	2.539299935851886E+000	-1.4889383E-001	-1.4898512E-001	-9.566630472071271E-004	1.4252856E-007
2	0	0	0	2.589399934586254E+000	-1.5390451E-001	-1.5398617E-001	-9.953090107009746E-004	1.5326383E-007
2	0	0	0	2.639399933323148E+000	-1.5890646E-001	-1.5900169E-001	-1.037576718417341E-003	1.6497646E-007
2	0	0	0	2.689399932060041E+000	-1.6390283E-001	-1.6400263E-001	-1.076549281921336E-003	1.7655691E-007
2	0	0	1	2.739599930791883E+000	-1.6892511E-001	-1.6902883E-001	-1.121218066250762E-003	1.8951818E-007
2	0	0	1	2.789599929528777E+000	-1.7392550E-001	-1.7403671E-001	-1.168156729242497E-003	2.0330215E-007
2	0	0	1	2.839599928265670E+000	-1.7892361E-001	-1.7902586E-001	-1.215701812199186E-003	2.1764205E-007
2	0	0	0	2.889799926997512E+000	-1.8394585E-001	-1.8406603E-001	-1.262433001984159E-003	2.3237102E-007
2	0	0	0	2.939799925734405E+000	-1.8894449E-001	-1.8906905E-001	-1.313178454876077E-003	2.4828140E-007
2	0	0	0	2.989799924471299E+000	-1.9394432E-001	-1.9406004E-001	-1.364349789163458E-003	2.6476579E-007
2	0	0	1	3.039999923203141E+000	-1.9896637E-001	-1.9907576E-001	-1.414357638045566E-003	2.8156433E-007
2	0	0	1	3.089999921940034E+000	-2.0396349E-001	-2.0408867E-001	-1.476858028472344E-003	3.0140998E-007
2	0	0	1	3.139999920676928E+000	-2.0896496E-001	-2.0909065E-001	-1.536025233133616E-003	3.2116853E-007
2	0	0	0	3.190099919411296E+000	-2.1397611E-001	-2.1408996E-001	-1.601323356946020E-003	3.4282726E-007
2	0	0	0	3.240199918145663E+000	-2.1898341E-001	-2.1910115E-001	-1.655404962781184E-003	3.6270112E-007
2	0	0	0	3.290199916882557E+000	-2.2398552E-001	-2.2409730E-001	-1.720878819819555E-003	3.8564428E-007
2	0	0	1	3.340299915616924E+000	-2.2899522E-001	-2.2910804E-001	-1.786263160655714E-003	4.0924724E-007
2	0	0	1	3.390399914351292E+000	-2.3400386E-001	-2.3412016E-001	-1.870213360073841E-003	4.3785465E-007
2	0	0	1	3.440399913088186E+000	-2.3900618E-001	-2.3913221E-001	-1.939724038355135E-003	4.6385048E-007
2	0	0	0	3.490499911822553E+000	-2.4401426E-001	-2.4413078E-001	-2.007204626526427E-003	4.9002040E-007
2	0	0	0	3.540599910556921E+000	-2.4902463E-001	-2.4911371E-001	-2.082737225910548E-003	5.1883842E-007
2	0	0	0	3.590599909293815E+000	-2.5402671E-001	-2.5411165E-001	-2.177990445345154E-003	5.5345276E-007
2	0	0	1	3.640699908028182E+000	-2.5903329E-001	-2.5911981E-001	-2.248363613121709E-003	5.8259553E-007
2	0	0	1	3.690799906762550E+000	-2.6404524E-001	-2.6414040E-001	-2.319476513537529E-003	6.1266746E-007
2	0	0	1	3.740799905499443E+000	-2.6904592E-001	-2.6912180E-001	-2.400034404693371E-003	6.4590159E-007
2	0	0	1	3.790799904236337E+000	-2.7404344E-001	-2.7413920E-001	-2.482010039445986E-003	6.8041624E-007
2	0	0	0	3.840999902968179E+000	-2.7906588E-001	-2.7915284E-001	-2.583915364923093E-003	7.2130729E-007
2	0	0	0	3.890999901705072E+000	-2.8406474E-001	-2.8416219E-001	-2.673332856486233E-003	7.5966011E-007
2	0	0	0	3.940999900441966E+000	-2.8906426E-001	-2.8915268E-001	-2.775796002554154E-003	8.0262885E-007
2	0	0	1	3.991199899173807E+000	-2.9408655E-001	-2.9416329E-001	-2.873274509524656E-003	8.4521190E-007
2	0	0	1	4.041199897910701E+000	-2.9908395E-001	-2.9917780E-001	-2.965066052626315E-003	8.8708191E-007
2	0	0	1	4.091199896647595E+000	-3.0408490E-001	-3.0417871E-001	-3.074751798554848E-003	9.3527404E-007
2	0	0	0	4.141299895381962E+000	-3.0909657E-001	-3.0919316E-001	-3.174613332487225E-003	9.8156875E-007
2	0	0	0	4.191399894116330E+000	-3.1410319E-001	-3.1419650E-001	-3.287044055998126E-003	1.0327777E-006
2	0	0	0	4.241399892853224E+000	-3.1910568E-001	-3.1920293E-001	-3.394879623673644E-003	1.0836555E-006
2	0	0	1	4.291499891587591E+000	-3.2411522E-001	-3.2420316E-001	-3.507260250498160E-003	1.1370648E-006
2	0	0	1	4.341599890321959E+000	-3.2912409E-001	-3.2918629E-001	-3.626156694283629E-003	1.1936811E-006
2	0	0	1	4.391599889058853E+000	-3.3412641E-001	-3.3419096E-001	-3.756047648319251E-003	1.2552372E-006
2	0	0	0	4.441699887793220E+000	-3.3913451E-001	-3.3921501E-001	-3.874138452779572E-003	1.3141660E-006
2	0	0	0	4.491799886527588E+000	-3.4414491E-001	-3.4421575E-001	-4.012036646942142E-003	1.3810062E-006
2	0	0	0	4.541799885264481E+000	-3.4914708E-001	-3.4923598E-001	-4.155653385661581E-003	1.4513037E-006
2	0	0	1	4.591899883998849E+000	-3.5415328E-001	-3.5424009E-001	-4.280193569579940E-003	1.5162161E-006
2	0	0	1	4.641999882733217E+000	-3.5916543E-001	-3.5926139E-001	-4.450895317372687E-003	1.5990348E-006
2	0	0	1	4.691999881470110E+000	-3.6416587E-001	-3.6425960E-001	-4.612961444717137E-003	1.6803154E-006
2	0	0	1	4.741999880207004E+000	-3.6916369E-001	-3.6924860E-001	-4.756462680567758E-003	1.7563171E-006
2	0	0	0	4.792199878938845E+000	-3.7418607E-001	-3.7427196E-001	-4.903370428589182E-003	1.8351941E-006
2	0	0	0	4.842199877675739E+000	-3.7918502E-001	-3.7926885E-001	-5.064064171529450E-003	1.9206418E-006
2	0	0	0	4.892199876412633E+000	-3.8418478E-001	-3.8426960E-001	-5.216150781228335E-003	2.0044081E-006
2	0	0	1	4.942399875144474E+000	-3.8920680E-001	-3.8929686E-001	-5.386318178944242E-003	2.0968766E-006
2	0	0	1	4.992399873881368E+000	-3.9420414E-001	-3.9428249E-001	-5.567280548255178E-003	2.1950812E-006
2	0	0	1	5.042399872618262E+000	-3.9920506E-001	-3.9930338E-001	-5.715825302079786E-003	2.2823483E-006
2	0	0	0	5.092499871352629E+000	-4.0421659E-001	-4.0429780E-001	-5.898351547105385E-003	2.3846906E-006
2	0	0	0	5.142599870086997E+000	-4.0922374E-001	-4.0929940E-001	-6.086657963947625E-003	2.4912654E-006
2	0	0	0	5.192599868823891E+000	-4.1422573E-001	-4.1431427E-001	-6.240902178068913E-003	2.5856948E-006
2	0	0	1	5.242699867558258E+000	-4.1923574E-001	-4.1931731E-001	-6.445360895948028E-003	2.7026513E-006
2	0	0	1	5.292799866292626E+000	-4.2424449E-001	-4.2434132E-001	-6.645699241130468E-003	2.8200448E-006
2	0	0	1	5.342799865029519E+000	-4.2924634E-001	-4.2932183E-001	-6.855037350486620E-003	2.9430171E-006
2	0	0	0	5.392899863763887E+000	-4.3425491E-001	-4.3433818E-001	-7.052398120765177E-003	3.0631259E-006
2	0	0	0	5.442999862498255E+000	-4.3926471E-001	-4.3934762E-001	-7.264803616977774E-003	3.1917741E-006
2	0	0	0	5.492999861235148E+000	-4.4426721E-001	-4.4435203E-001	-7.479566759872672E-003	3.3235606E-006
2	0	0	1	5.543099859969516E+000	-4.4927365E-001	-4.4934049E-001	-7.710586579654233E-003	3.4646787E-006
2	0	0	1	5.593199858703883E+000	-4.5428544E-001	-4.5436558E-001	-7.941550652198100E-003	3.6083673E-006
2	0	0	1	5.643199857440777E+000	-4.5928642E-001	-4.5936811E-001	-8.180148736929044E-003	3.7576995E-006
2	0	0	1	5.693199856177671E+000	-4.6428424E-001	-4.6436644E-001	-8.445271065709317E-003	3.9217002E-006
2	0	0	0	5.743399854909512E+000	-4.6930632E-001	-4.6938857E-001	-8.715615472050922E-003	4.0910104E-006
2	0	0	0	5.793399853646406E+000	-4.7430557E-001	-4.7438666E-001	-8.943002890484913E-003	4.2424413E-006
2	0	0	0	5.843399852383300E+000	-4.7930443E-001	-4.7938129E-001	-9.251924051920352E-003	4.4351991E-006
2	0	0	1	5.893599851115141E+000	-4.8432708E-001	-4.8441920E-001	-9.536179426034908E-003	4.6195082E-006
2	0	0	1	5.943599849852035E+000	-4.8932412E-001	-4.8941967E-001	-9.824073108834180E-003	4.8080947E-006
2	0	0	1	5.993599848588929E+000	-4.9432519E-001	-4.9443266E-001	-1.011667319836848E-002	5.0020135E-006
2	0	0	0	6.058999846936786E+000	-5.0086778E-001	-5.0097144E-001	-1.050686573851910E-002	5.2636397E-006
2	0	0	1	6.124299845287169E+000	-5.0739717E-001	-5.0748557E-001	-1.090818590787832E-002	5.5357468E-006
2	0	0	1	6.174399844021536E+000	-5.1240379E-001	-5.1250619E-001	-1.123417338592790E-002	5.7575835E-006
2	0	0	1	6.224399842758430E+000	-5.1740575E-001	-5.1749772E-001	-1.157014616494459E-002	5.9875242E-006
2	0	0	0	6.274499841492798E+000	-5.2241641E-001	-5.2251947E-001	-1.189158067731710E-002	6.2135823E-006
2	0	0	0	6.324599840227165E+000	-5.2742410E-001	-5.2751201E-001	-1.224829243711673E-002	6.4611213E-006
2	0	0	0	6.374599838964059E+000	-5.3242636E-001	-5.3252578E-001	-1.261008133840680E-002	6.7151932E-006
2	0	0	1	6.424699837698427E+000	-5.3743511E-001	-5.3753465E-001	-1.295775414728886E-002	6.9652419E-006
2	0	0	1	6.474799836432794E+000	-5.4244494E-001	-5.4252738E-001	-1.334310744499867E-002	7.2390012E-006
2	0	0	1	6.524799835169688E+000	-5.4744720E-001	-5.4754019E-001	-1.372892554104255E-002	7.5171383E-006
2	0	0	0	6.574899833904055E+000	-5.5245441E-001	-5.5255467E-001	-1.413950717641167E-002	7.8128505E-006
2	0	0	0	6.624999832638423E+000	-5.5746543E-001	-5.5757594E-001	-1.452190845929091E-002	8.0970667E-006
2	0	0	0	6.674999831375317E+000	-5.6246704E-001	-5.6256205E-001	-1.493576680113284E-002	8.4022959E-006
2	0	0	0	6.724999830112210E+000	-5.6746382E-001	-5.6757164E-001	-1.536586155549124E-002	8.7212275E-006
2	0	0	1	6.775199828844052E+000	-5.7248616E-001	-5.7259363E-001	-1.578313909853946E-002	9.0373251E-006
2	0	0	1	6.825199827580946E+000	-5.7748550E-001	-5.7758391E-001	-1.623302685132511E-002	9.3759354E-006
2	0	0	1	6.875199826317839E+000	-5.8248466E-001	-5.8257329E-001	-1.666703685296700E-002	9.7097709E-006
2	0	0	0	6.925399825049681E+000	-5.8750701E-001	-5.8759934E-001	-1.715395968555298E-002	1.0079655E-005
2	0	0	0	6.975399823786574E+000	-5.9250486E-001	-5.9260941E-001	-1.762353411773984E-002	1.0443872E-005
2	0	0	0	7.025399822523468E+000	-5.9750539E-001	-5.9760475E-001	-1.812448858143817E-002	1.0831281E-005
2	0	0	1	7.075499821257836E+000	-6.0251766E-001	-6.0261279E-001	-1.858466711840565E-002	1.1199359E-005
2	0	0	1	7.125599819992203E+000	-6.0752356E-001	-6.0761815E-001	-1.905844588864816E-002	1.1580258E-005
2	0	0	1	7.175599818729097E+000	-6.1252606E-001	-6.1262822E-001	-1.959882676652235E-002	1.2006794E-005
2	0	0	0	7.225699817463465E+000	-6.1753619E-001	-6.1763376E-001	-2.011275230833426E-002	1.2422315E-005
2	0	0	0	7.275799816197832E+000	-6.2254435E-001	-6.2264764E-001	-2.068404784172462E-002	1.2878873E-005
2	0	0	0	7.325799814934726E+000	-6.2754655E-001	-6.2764430E-001	-2.124054478951209E-002	1.3331507E-005
2	0	0	1	7.375899813669093E+000	-6.3255531E-001	-6.3265336E-001	-2.179017512269854E-002	1.3785628E-005
2	0	0	1	7.425999812403461E+000	-6.3756514E-001	-6.3765490E-001	-2.239264102987049E-002	1.4278778E-005
2	0	0	1	7.475999811140355E+000	-6.4256740E-001	-6.4263827E-001	-2.295242292396965E-002	1.4750105E-005
2	0	0	0	7.526099809874722E+000	-6.4757442E-001	-6.4764738E-001	-2.355142174812036E-002	1.5253016E-005
2	0	0	0	7.576199808609090E+000	-6.5258574E-001	-6.5266228E-001	-2.421959850747229E-002	1.5807218E-005
2	0	0	0	7.626199807345984E+000	-6.5758681E-001	-6.5765190E-001	-2.481771522164439E-002	1.6321417E-005
2	0	0	0	7.676199806082877E+000	-6.6258407E-001	-6.6264552E-001	-2.547762612999971E-002	1.6882635E-005
2	0	0	1	7.726399804814719E+000	-6.6760635E-001	-6.6766816E-001	-2.615433476457618E-002	1.7462417E-005
2	0	0	1	7.776399803551612E+000	-6.7260605E-001	-6.7268908E-001	-2.679618904314435E-002	1.8025503E-005
2	0	0	1	7.826399802288506E+000	-6.7760521E-001	-6.7767632E-001	-2.747613654045461E-002	1.8619927E-005
2	0	0	0	7.876599801020348E+000	-6.8262696E-001	-6.8268800E-001	-2.822249396369828E-002	1.9267158E-005
2	0	0	0	7.926599799757241E+000	-6.8762535E-001	-6.8769008E-001	-2.890742535322227E-002	1.9879350E-005
2	0	0	0	7.976599798494135E+000	-6.9262511E-001	-6.9268060E-001	-2.960713303447460E-002	2.0508287E-005
2	0	0	1	8.026799797225976E+000	-6.9764763E-001	-6.9771093E-001	-3.036040684192742E-002	2.1182788E-005
2	0	0	1	8.076799795962870E+000	-7.0264405E-001	-7.0270073E-001	-3.110182571254899E-002	2.1855276E-005
2	0	0	1	8.126799794699764E+000	-7.0764601E-001	-7.0771617E-001	-3.185629760872633E-002	2.2545217E-005
2	0	0	0	8.176899793434131E+000	-7.1265686E-001	-7.1273512E-001	-3.276770488545494E-002	2.3354694E-005
2	0	0	0	8.226999792168499E+000	-7.1766502E-001	-7.1772575E-001	-3.357733027982575E-002	2.4099314E-005
2	0	0	0	8.276999790905393E+000	-7.2266680E-001	-7.2272360E-001	-3.436681911337197E-002	2.4837711E-005
2	0	0	1	8.327099789639760E+000	-7.2767603E-001	-7.2773045E-001	-3.518041560686705E-002	2.5601859E-005
2	0	0	1	8.377199788374128E+000	-7.3268521E-001	-7.3273724E-001	-3.607951423226152E-002	2.6436805E-005
2	0	0	1	8.427199787111022E+000	-7.3768759E-001	-7.3773843E-001	-3.689195178068463E-002	2.7216611E-005
2	0	0	0	8.477299785845389E+000	-7.4269456E-001	-7.4274760E-001	-3.774704862747935E-002	2.8036529E-005
2	0	0	0	8.527399784579757E+000	-7.4770588E-001	-7.4776405E-001	-3.862517003106219E-002	2.8882514E-005
2	0	0	0	8.577399783316650E+000	-7.5270736E-001	-7.5276768E-001	-3.951091662127695E-002	2.9742541E-005
2	0	0	0	8.627399782053544E+000	-7.5770438E-001	-7.5777555E-001	-4.042473267784907E-002	3.0632873E-005
2	0	0	1	8.677599780785386E+000	-7.6272666E-001	-7.6279098E-001	-4.145320966064453E-002	3.1620133E-005
2	0	0	1	8.727599779522279E+000	-7.6772666E-001	-7.6779950E-001	-4.233094796584302E-002	3.2501681E-005
2	0	0	1	8.777599778259173E+000	-7.7272499E-001	-7.7280033E-001	-4.327760102766787E-002	3.3444943E-005
2	0	0	0	8.827799776991014E+000	-7.7774745E-001	-7.7782041E-001	-4.418585180141033E-002	3.4368659E-005
2	0	0	0	8.877799775727908E+000	-7.8274512E-001	-7.8281677E-001	-4.520230225090693E-002	3.5385121E-005
2	0	0	0	8.927799774464802E+000	-7.8774571E-001	-7.8782362E-001	-4.620090957199441E-002	3.6398167E-005
2	0	0	1	8.977999773196643E+000	-7.9276776E-001	-7.9283273E-001	-4.721490008740714E-002	3.7433518E-005
2	0	0	1	9.027999771933537E+000	-7.9776436E-001	-7.9784667E-001	-4.829338722963872E-002	3.8530718E-005
2	0	0	1	9.077999770670431E+000	-8.0276656E-001	-8.0283743E-001	-4.930316695466699E-002	3.9582428E-005
2	0	0	0	9.128099769404798E+000	-8.0777723E-001	-8.0786675E-001	-5.039489632838392E-002	4.0712363E-005
2	0	0	0	9.178199768139166E+000	-8.1278497E-001	-8.1286961E-001	-5.146498154415374E-002	4.1834319E-005
2	0	0	0	9.228199766876060E+000	-8.1778693E-001	-8.1787765E-001	-5.253631891433486E-002	4.2968280E-005
2	0	0	1	9.278299765610427E+000	-8.2279599E-001	-8.2287943E-001	-5.369554296760781E-002	4.4184959E-005
2	0	0	1	9.328399764344795E+000	-8.2780546E-001	-8.2789546E-001	-5.472148022313483E-002	4.5303666E-005
2	0	0	1	9.378399763081688E+000	-8.3280742E-001	-8.3289933E-001	-5.579058713511043E-002	4.6467943E-005
2	0	0	0	9.428499761816056E+000	-8.3781505E-001	-8.3790058E-001	-5.692647344449742E-002	4.7698726E-005
2	0	0	0	9.478599760550424E+000	-8.4282619E-001	-8.4289092E-001	-5.809498040904137E-002	4.8967733E-005
2	0	0	0	9.528599759287317E+000	-8.4782761E-001	-8.4792835E-001	-5.920503324155654E-002	5.0201626E-005
2	0	0	0	9.578599758024211E+000	-8.5282487E-001	-8.5291070E-001	-6.039703107288386E-002	5.1513274E-005
2	0	0	1	9.628799756756052E+000	-8.5784692E-001	-8.5792911E-001	-6.162493753113268E-002	5.2869829E-005
2	0	0	1	9.678799755492946E+000	-8.6284679E-001	-8.6293459E-001	-6.283966987346767E-002	5.4226526E-005
2	0	0	1	9.728799754229840E+000	-8.6784506E-001	-8.6794555E-001	-6.410147195312749E-002	5.5636589E-005
2	0	0	0	9.778999752961681E+000	-8.7286735E-001	-8.7296665E-001	-6.537134320293903E-002	5.7067002E-005
2	0	0	0	9.828999751698575E+000	-8.7786567E-001	-8.7793279E-001	-6.663810473080226E-002	5.8503778E-005
2	0	0	0	9.878999750435469E+000	-8.8286579E-001	-8.8293058E-001	-6.789129158493279E-002	5.9943297E-005
2	0	0	1	9.929199749167310E+000	-8.8788807E-001	-8.8796419E-001	-6.921436682791945E-002	6.1459876E-005
2	0	0	1	9.979199747904204E+000	-8.9288485E-001	-8.9294583E-001	-7.047761746436598E-002	6.2932697E-005
2	0	0	1	1.002919974664110E+001	-8.9788646E-001	-8.9794838E-001	-7.174607384755818E-002	6.4424268E-005
2	0	0	0	1.007929974537547E+001	-9.0289766E-001	-9.0297508E-001	-7.313459239335751E-002	6.6038716E-005
2	0	0	0	1.012939974410983E+001	-9.0790468E-001	-9.0798688E-001	-7.448200660184345E-002	6.7628687E-005
2	0	0	0	1.017939974284673E+001	-9.1290718E-001	-9.1298562E-001	-7.575893223944175E-002	6.9166817E-005
2	0	0	1	1.022949974158109E+001	-9.1791624E-001	-9.1797835E-001	-7.713653674875598E-002	7.0809670E-005
2	0	0	1	1.027959974031546E+001	-9.2292547E-001	-9.2300081E-001	-7.850979052525209E-002	7.2464602E-005
2	0	0	1	1.032959973905236E+001	-9.2792779E-001	-9.2800099E-001	-7.985718116559615E-002	7.4107542E-005
2	0	0	0	1.037969973778672E+001	-9.3293560E-001	-9.3302137E-001	-8.132382411718198E-002	7.5876866E-005
2	0	0	0	1.042979973652109E+001	-9.3794614E-001	-9.3801808E-001	-8.280024532805463E-002	7.7668126E-005
2	0	0	0	1.047979973525798E+001	-9.4294834E-001	-9.4300926E-001	-8.434710986627358E-002	7.9540107E-005
2	0	0	0	1.052979973399488E+001	-9.4794434E-001	-9.4802290E-001	-8.582451921036896E-002	8.1363607E-005
2	0	0	1	1.057999973272672E+001	-9.5296705E-001	-9.5302898E-001	-8.737282120601897E-002	8.3268831E-005
2	0	0	1	1.062999973146361E+001	-9.5796680E-001	-9.5801210E-001	-8.880462025399871E-002	8.5075902E-005
2	0	0	1	1.067999973020051E+001	-9.6296513E-001	-9.6303254E-001	-9.032660086571098E-002	8.6987457E-005
2	0	0	0	1.073019972893235E+001	-9.6798754E-001	-9.6804917E-001	-9.178408105791402E-002	8.8851506E-005
2	0	0	0	1.078019972766924E+001	-9.7298610E-001	-9.7305536E-001	-9.331025268442705E-002	9.0796042E-005
2	0	0	0	1.083019972640614E+001	-9.7798604E-001	-9.7806036E-001	-9.488991244780531E-002	9.2808063E-005
2	0	0	1	1.088039972513798E+001	-9.8300833E-001	-9.8308200E-001	-9.638268095287694E-002	9.4752075E-005
2	0	0	1	1.093039972387487E+001	-9.8800486E-001	-9.8808181E-001	-9.810608922705111E-002	9.6936841E-005
2	0	0	1	1.098039972261176E+001	-9.9300671E-001	-9.9306166E-001	-9.984966751266233E-002	9.9156874E-005
2	0	0	0	1.102779972141434E+001	-9.9774671E-001	-9.9779403E-001	-1.013511789892526E-001	1.0112760E-004
2	0	0	0	1.105019972084847E+001	-9.9999291E-001	-9.9995005E-001	-1.021883860230446E-001	1.0218328E-004