EC-Lab ASCII FILE
Nb header lines : 55                          

I-V Characterization

Run on channel : 1 (SN 6514)
User : 
CE vs. WE compliance from -10 V to 10 V
Electrode connection : standard
Ewe ctrl range : min = -1.10 V, max = 0.20 V
Safety Limits :
	Do not start on E overload
Acquisition started on : 06/15/2016 18:30:13
Saved on :
	File : B125-G54-UN-G-D1GB-C8 BW 10mVs dark_C01.mpr
	Directory : E:\EC-Lab measurements\B125-G54-UN-G-D1GB\
	Host : 10.0.2.15
Device : VSP (SN 0295)
Address : USB
EC-Lab for windows v11.01 (software)
Internet server v11.00 (firmware)
Command interpretor v11.00 (firmware)
Electrode material : 
Initial state : 
Electrolyte : 
Comments : 
Electrode surface area : 0.001 cm²
Characteristic mass : 0.001 g
Equivalent Weight : 0.000 g/eq.
Density : 0.000 g/cm3
tR (h:m:s)          0:00:0.0000         
dER/dt (mV/h)       0.0                 
dER (mV)            0                   
dtR (s)             0.0000              
dE/dt               10.000              
dE/dt unit          mV/s                
Ei (V)              -1.000              
vs.                 Ref                 
EL (V)              0.100               
vs.                 Ref                 
record              <I>                 
dI                  0.000               
unit dI             µA                  
tI (s)              0.1000              
step percent        100                 
N                   100                 
E range min (V)     -1.100              
E range max (V)     0.200               
I Range             Auto                
I Range min         Unset               
I Range max         Unset               
I Range init        Unset               
Bandwidth           5                   

mode	ox/red	error	control changes	time/s	control/V	Ewe/V	<I>/mA	P/W
2	1	0	0	8.499999785271939E-002	-9.9972111E-001	-9.9969417E-001	-5.257672965526594E-002	5.2560648E-005
2	1	0	1	3.377999914664542E-001	-9.9719477E-001	-9.9721175E-001	-5.928286184754421E-002	5.9117567E-005
2	1	0	0	8.383999788202345E-001	-9.9218845E-001	-9.9222797E-001	-6.772364910721396E-002	6.7197296E-005
2	1	0	1	1.338999966174015E+000	-9.8718262E-001	-9.8722917E-001	-6.741404190823785E-002	6.6553112E-005
2	1	0	0	1.839599953527795E+000	-9.8217642E-001	-9.8222333E-001	-6.577090151375464E-002	6.4601714E-005
2	1	0	1	2.340199940881575E+000	-9.7717053E-001	-9.7721851E-001	-6.330148254256318E-002	6.1859384E-005
2	1	0	0	2.840799928235356E+000	-9.7216457E-001	-9.7220790E-001	-6.115757536699262E-002	5.9457878E-005
2	1	0	0	3.341599915584084E+000	-9.6715641E-001	-9.6720529E-001	-5.927143433790860E-002	5.7327645E-005
2	1	0	1	3.842199902937864E+000	-9.6215063E-001	-9.6218711E-001	-5.757353315025815E-002	5.5396511E-005
2	1	0	0	4.342799890291644E+000	-9.5714438E-001	-9.5716667E-001	-5.604690154719416E-002	5.3646225E-005
2	1	0	1	4.843399877645425E+000	-9.5213872E-001	-9.5219088E-001	-5.458156293524763E-002	5.1972067E-005
2	1	0	0	5.343999864999205E+000	-9.4713229E-001	-9.4721025E-001	-5.326353629314795E-002	5.0451767E-005
2	1	0	1	5.844599852352985E+000	-9.4212669E-001	-9.4218522E-001	-5.198000587166607E-002	4.8974794E-005
2	1	0	0	6.345199839706765E+000	-9.3712044E-001	-9.3717301E-001	-5.116166777775377E-002	4.7947335E-005
2	1	0	1	6.845799827060546E+000	-9.3211466E-001	-9.3217391E-001	-5.017121883014512E-002	4.6768302E-005
2	1	0	0	7.346499814411800E+000	-9.2710739E-001	-9.2716646E-001	-4.895502004337376E-002	4.5389454E-005
2	1	0	0	7.847199801763054E+000	-9.2210078E-001	-9.2213607E-001	-4.804371583303885E-002	4.4302844E-005
2	1	0	1	8.347799789116834E+000	-9.1709447E-001	-9.1712594E-001	-4.709594802043759E-002	4.3192915E-005
2	1	0	0	8.848399776470615E+000	-9.1208875E-001	-9.1214490E-001	-4.615251620303062E-002	4.2097781E-005
2	1	0	1	9.348999763824395E+000	-9.0708238E-001	-9.0714228E-001	-4.506920565082645E-002	4.0884181E-005
2	1	0	0	9.849599751178175E+000	-9.0207654E-001	-9.0212953E-001	-4.398721005651074E-002	3.9682160E-005
2	1	0	1	1.035019973853196E+001	-8.9707035E-001	-8.9710283E-001	-4.311563241018779E-002	3.8679154E-005
2	1	0	0	1.085079972588574E+001	-8.9206445E-001	-8.9211267E-001	-4.249003127848172E-002	3.7905895E-005
2	1	0	1	1.135139971323952E+001	-8.8705838E-001	-8.8710427E-001	-4.136031045600957E-002	3.6690908E-005
2	1	0	0	1.185209970059077E+001	-8.8205129E-001	-8.8208550E-001	-4.053995558465506E-002	3.5759705E-005
2	1	0	0	1.235279968794202E+001	-8.7704456E-001	-8.7709463E-001	-3.955950690844956E-002	3.4697430E-005
2	1	0	1	1.285339967529580E+001	-8.7203830E-001	-8.7209767E-001	-3.869623721313234E-002	3.3746899E-005
2	1	0	0	1.335399966264958E+001	-8.6703265E-001	-8.6710596E-001	-3.776482956419080E-002	3.2746109E-005
2	1	0	1	1.385459965000337E+001	-8.6202633E-001	-8.6209607E-001	-3.715783558348440E-002	3.2033626E-005
2	1	0	0	1.435519963735715E+001	-8.5702056E-001	-8.5707873E-001	-3.643119787551324E-002	3.1224405E-005
2	1	0	1	1.485579962471093E+001	-8.5201430E-001	-8.5207283E-001	-3.556005577972948E-002	3.0299758E-005
2	1	0	0	1.535639961206471E+001	-8.4700859E-001	-8.4707761E-001	-3.477095270116148E-002	2.9453695E-005
2	1	0	1	1.585699959941849E+001	-8.4200227E-001	-8.4204954E-001	-3.405223286981240E-002	2.8673667E-005
2	1	0	0	1.635769958676974E+001	-8.3699554E-001	-8.3705372E-001	-3.341600302488154E-002	2.7970989E-005
2	1	0	0	1.685839957412099E+001	-8.3198833E-001	-8.3205569E-001	-3.295672540805827E-002	2.7421831E-005
2	1	0	1	1.735899956147478E+001	-8.2698250E-001	-8.2704782E-001	-3.228994827183663E-002	2.6705331E-005
2	1	0	0	1.785959954882856E+001	-8.2197624E-001	-8.2204312E-001	-3.165601817207164E-002	2.6022612E-005
2	1	0	1	1.836019953618234E+001	-8.1697041E-001	-8.1703711E-001	-3.120017610517831E-002	2.5491701E-005
2	1	0	0	1.886079952353612E+001	-8.1196427E-001	-8.1202155E-001	-3.033850664769078E-002	2.4635521E-005
2	1	0	1	1.936139951088990E+001	-8.0695838E-001	-8.0702919E-001	-2.974704983474158E-002	2.4006737E-005
2	1	0	0	1.986199949824368E+001	-8.0195230E-001	-8.0200011E-001	-2.892651283562375E-002	2.3199067E-005
2	1	0	1	2.036259948559746E+001	-7.9694617E-001	-7.9699814E-001	-2.830908371898544E-002	2.2562288E-005
2	1	0	1	2.086339947294618E+001	-7.9193836E-001	-7.9199570E-001	-2.748242114118382E-002	2.1765960E-005
2	1	0	0	2.136399946029997E+001	-7.8693223E-001	-7.8697628E-001	-2.680095728312976E-002	2.1091717E-005
2	1	0	1	2.186459944765375E+001	-7.8192645E-001	-7.8197825E-001	-2.642212075728818E-002	2.0661524E-005
2	1	0	0	2.236519943500753E+001	-7.7692014E-001	-7.7696526E-001	-2.567755570941793E-002	1.9950568E-005
2	1	0	1	2.286579942236131E+001	-7.7191436E-001	-7.7194452E-001	-2.469546372106618E-002	1.9063527E-005
2	1	0	0	2.336639940971509E+001	-7.6690811E-001	-7.6694715E-001	-2.433089044941711E-002	1.8660507E-005
2	1	0	1	2.386699939706887E+001	-7.6190245E-001	-7.6193446E-001	-2.382388425703291E-002	1.8152239E-005
2	1	0	0	2.436759938442265E+001	-7.5689614E-001	-7.5693119E-001	-2.311645586615346E-002	1.7497567E-005
2	1	0	1	2.486829937177390E+001	-7.5188935E-001	-7.5191510E-001	-2.261153273738928E-002	1.7001952E-005
2	1	0	1	2.536899935912516E+001	-7.4688232E-001	-7.4691147E-001	-2.198373699570461E-002	1.6419905E-005
2	1	0	0	2.586959934647894E+001	-7.4187636E-001	-7.4191242E-001	-2.155974723420570E-002	1.5995445E-005
2	1	0	1	2.637019933383272E+001	-7.3687017E-001	-7.3689198E-001	-2.107654781676904E-002	1.5531139E-005
2	1	0	0	2.687079932118650E+001	-7.3186433E-001	-7.3188251E-001	-2.048865050870452E-002	1.4995285E-005
2	1	0	1	2.737139930854028E+001	-7.2685814E-001	-7.2688228E-001	-2.007467951772135E-002	1.4591928E-005
2	1	0	0	2.787199929589406E+001	-7.2185218E-001	-7.2187668E-001	-1.943447512059193E-002	1.4029294E-005
2	1	0	1	2.837259928324784E+001	-7.1684611E-001	-7.1688771E-001	-1.894234393674754E-002	1.3579534E-005
2	1	0	0	2.887319927060162E+001	-7.1184015E-001	-7.1188688E-001	-1.823843192452301E-002	1.2983701E-005
2	1	0	1	2.937389925795287E+001	-7.0683318E-001	-7.0686716E-001	-1.800425220960944E-002	1.2726615E-005
2	1	0	1	2.987459924530413E+001	-7.0182604E-001	-7.0185775E-001	-1.763798202759204E-002	1.2379354E-005
2	1	0	0	3.037519923265791E+001	-6.9682014E-001	-6.9685984E-001	-1.718061143435556E-002	1.1972478E-005
2	1	0	1	3.087579922001169E+001	-6.9181401E-001	-6.9184035E-001	-1.672908730118849E-002	1.1573858E-005
2	1	0	0	3.137639920736547E+001	-6.8680817E-001	-6.8685192E-001	-1.622373052154546E-002	1.1143300E-005
2	1	0	1	3.187699919471925E+001	-6.8180203E-001	-6.8183362E-001	-1.592296454593600E-002	1.0856813E-005
2	1	0	0	3.237759918207303E+001	-6.7679626E-001	-6.7684472E-001	-1.558045195793339E-002	1.0545547E-005
2	1	0	1	3.287819916942681E+001	-6.7179000E-001	-6.7183113E-001	-1.508784361826518E-002	1.0136483E-005
2	1	0	0	3.337879915678059E+001	-6.6678423E-001	-6.6682231E-001	-1.484945851238942E-002	9.9019499E-006
2	1	0	1	3.387949914413184E+001	-6.6177708E-001	-6.6180927E-001	-1.442629537223983E-002	9.5474561E-006
2	1	0	1	3.438019913148310E+001	-6.5677029E-001	-6.5680224E-001	-1.405936672375526E-002	9.2342234E-006
2	1	0	0	3.488079911883688E+001	-6.5176398E-001	-6.5181303E-001	-1.361992105113777E-002	8.8776424E-006
2	1	0	1	3.538139910619066E+001	-6.4675808E-001	-6.4681077E-001	-1.311953412634220E-002	8.4858557E-006
2	1	0	0	3.588199909354444E+001	-6.4175200E-001	-6.4179319E-001	-1.291834485631821E-002	8.2909055E-006
2	1	0	1	3.638259908089822E+001	-6.3674599E-001	-6.3680512E-001	-1.246995177932324E-002	7.9409292E-006
2	1	0	0	3.688319906825200E+001	-6.3173991E-001	-6.3181227E-001	-1.225632855746836E-002	7.7436989E-006
2	1	0	1	3.738379905560578E+001	-6.2673390E-001	-6.2680566E-001	-1.200352965685950E-002	7.5238804E-006
2	1	0	0	3.788439904295956E+001	-6.2172788E-001	-6.2179655E-001	-1.163025489659161E-002	7.2316525E-006
2	1	0	0	3.838519903030829E+001	-6.1671990E-001	-6.1677963E-001	-1.130668211292424E-002	6.9737312E-006
2	1	0	1	3.888579901766207E+001	-6.1171395E-001	-6.1178976E-001	-1.091160361576379E-002	6.6756074E-006
2	1	0	0	3.938639900501585E+001	-6.0670781E-001	-6.0675758E-001	-1.073506846097283E-002	6.5135841E-006
2	1	0	1	3.988699899236963E+001	-6.0170197E-001	-6.0175633E-001	-1.023527175066311E-002	6.1591395E-006
2	1	0	0	4.038759897972341E+001	-5.9669590E-001	-5.9675783E-001	-9.918618279661451E-003	5.9190129E-006
2	1	0	1	4.088819896707719E+001	-5.9168994E-001	-5.9175497E-001	-9.737018097208006E-003	5.7619291E-006
2	1	0	0	4.138879895443097E+001	-5.8668387E-001	-5.8673579E-001	-9.330395463733834E-003	5.4744769E-006
2	1	0	1	4.188939894178475E+001	-5.8167791E-001	-5.8173472E-001	-9.148174019539802E-003	5.3218105E-006
2	1	0	0	4.239009892913600E+001	-5.7667089E-001	-5.7672977E-001	-8.991817318753981E-003	5.1858487E-006
2	1	0	0	4.289079891648726E+001	-5.7166398E-001	-5.7172620E-001	-8.776191930252891E-003	5.0175790E-006
2	1	0	1	4.339139890384104E+001	-5.6665778E-001	-5.6671214E-001	-8.512826087595321E-003	4.8243219E-006
2	1	0	0	4.389199889119482E+001	-5.6165183E-001	-5.6171590E-001	-8.092094707405489E-003	4.5454581E-006
2	1	0	1	4.439259887854860E+001	-5.5664575E-001	-5.5671656E-001	-7.769940192162955E-003	4.3256546E-006
2	1	0	0	4.489319886590238E+001	-5.5163980E-001	-5.5171496E-001	-7.664333157109286E-003	4.2285274E-006
2	1	0	1	4.539379885325616E+001	-5.4663372E-001	-5.4669249E-001	-7.440748439607306E-003	4.0678015E-006
2	1	0	0	4.589439884060994E+001	-5.4162771E-001	-5.4168570E-001	-7.195481574856240E-003	3.8976896E-006
2	1	0	1	4.639499882796372E+001	-5.3662163E-001	-5.3667974E-001	-6.973207820691926E-003	3.7423795E-006
2	1	0	0	4.689569881531497E+001	-5.3161460E-001	-5.3167915E-001	-6.743349854888933E-003	3.5852986E-006
2	1	0	0	4.739639880266623E+001	-5.2660763E-001	-5.2666330E-001	-6.462186368085460E-003	3.4033965E-006
2	1	0	1	4.789699879002001E+001	-5.2160168E-001	-5.2167535E-001	-6.260567480994975E-003	3.2659837E-006
2	1	0	0	4.839759877737379E+001	-5.1659566E-001	-5.1666850E-001	-6.025817792846819E-003	3.1133502E-006
2	1	0	1	4.889819876472757E+001	-5.1158959E-001	-5.1165670E-001	-5.813711289172279E-003	2.9746243E-006
2	1	0	0	4.939879875208135E+001	-5.0658369E-001	-5.0666332E-001	-5.736874495162261E-003	2.9066639E-006
2	1	0	1	4.989939873943513E+001	-5.0157768E-001	-5.0161999E-001	-5.597421592269627E-003	2.8077786E-006
2	1	0	0	5.039999872678891E+001	-4.9657160E-001	-4.9664694E-001	-5.482413742567943E-003	2.7228241E-006
2	1	0	1	5.090059871414269E+001	-4.9156559E-001	-4.9162304E-001	-5.218585401654346E-003	2.5655768E-006
2	1	0	0	5.141879870105186E+001	-4.8638371E-001	-4.8644328E-001	-4.957084588428574E-003	2.4113406E-006
2	1	0	1	5.193699868796102E+001	-4.8120162E-001	-4.8125198E-001	-4.545123389602952E-003	2.1873498E-006
2	1	0	0	5.243759867531480E+001	-4.7619566E-001	-4.7621554E-001	-4.463782749461825E-003	2.1257226E-006
2	1	0	1	5.293819866266858E+001	-4.7118965E-001	-4.7122321E-001	-4.188867545888805E-003	1.9738916E-006
2	1	0	0	5.343879865002236E+001	-4.6618357E-001	-4.6622038E-001	-4.129638054370784E-003	1.9253214E-006
2	1	0	1	5.393939863737614E+001	-4.6117753E-001	-4.6120840E-001	-4.193542758154478E-003	1.9340971E-006
2	1	0	0	5.443999862472992E+001	-4.5617157E-001	-4.5620733E-001	-4.016773229786427E-003	1.8324814E-006
2	1	0	0	5.494079861207865E+001	-4.5116362E-001	-4.5122212E-001	-3.782090310687002E-003	1.7065628E-006
2	1	0	1	5.544139859943243E+001	-4.4615752E-001	-4.4617996E-001	-3.665414122554288E-003	1.6354343E-006
2	1	0	0	5.594199858678621E+001	-4.4115153E-001	-4.4120923E-001	-3.536556065890949E-003	1.5603612E-006
2	1	0	1	5.644259857413999E+001	-4.3614548E-001	-4.3622679E-001	-3.472768632671396E-003	1.5149147E-006
2	1	0	0	5.694319856149377E+001	-4.3113950E-001	-4.3115956E-001	-3.165564550872812E-003	1.3648634E-006
2	1	0	1	5.744379854884755E+001	-4.2613348E-001	-4.2618138E-001	-3.096874456150853E-003	1.3198302E-006
2	1	0	0	5.794439853620133E+001	-4.2112744E-001	-4.2117652E-001	-2.999143239725728E-003	1.2631688E-006
2	1	0	1	5.844499852355511E+001	-4.1612145E-001	-4.1615331E-001	-2.975014411224018E-003	1.2380621E-006
2	1	0	0	5.894569851090637E+001	-4.1111445E-001	-4.1119143E-001	-2.854675813911280E-003	1.1738182E-006
2	1	0	0	5.944639849825762E+001	-4.0610752E-001	-4.0615416E-001	-2.711183221121460E-003	1.1011583E-006
2	1	0	1	5.994699848561140E+001	-4.0110153E-001	-4.0114355E-001	-2.641397562061516E-003	1.0595796E-006
2	1	0	0	6.044759847296518E+001	-3.9609548E-001	-3.9615592E-001	-2.497268567407823E-003	9.8930775E-007
2	1	0	1	6.094819846031896E+001	-3.9108953E-001	-3.9112952E-001	-2.345568120640538E-003	9.1742095E-007
2	1	0	0	6.144879844767274E+001	-3.8608348E-001	-3.8612238E-001	-2.354266682475015E-003	9.0903507E-007
2	1	0	1	6.194939843502652E+001	-3.8107747E-001	-3.8115391E-001	-2.245689435167959E-003	8.5595332E-007
2	1	0	0	6.244999842238030E+001	-3.7607145E-001	-3.7612906E-001	-2.203107040570265E-003	8.2865256E-007
2	1	0	1	6.295059840973408E+001	-3.7106547E-001	-3.7113369E-001	-2.171102910692840E-003	8.0576945E-007
2	1	0	0	6.345129839708534E+001	-3.6605844E-001	-3.6611459E-001	-2.048959201968188E-003	7.5015384E-007
2	1	0	0	6.395199838443659E+001	-3.6105147E-001	-3.6110055E-001	-1.922580130418943E-003	6.9424476E-007
2	1	0	1	6.445259837179037E+001	-3.5604540E-001	-3.5610190E-001	-1.920426609066649E-003	6.8386754E-007
2	1	0	0	6.495319835914415E+001	-3.5103938E-001	-3.5107088E-001	-1.920499508006707E-003	6.7423144E-007
2	1	0	1	6.545379834649793E+001	-3.4603339E-001	-3.4606254E-001	-1.867528143437013E-003	6.4628153E-007
2	1	0	0	6.595439833385171E+001	-3.4102729E-001	-3.4106499E-001	-1.805614514472507E-003	6.1583188E-007
2	1	0	1	6.645499832120549E+001	-3.3602130E-001	-3.3607140E-001	-1.811491005578734E-003	6.0879034E-007
2	1	0	0	6.695559830855927E+001	-3.3101532E-001	-3.3104730E-001	-1.741242975746130E-003	5.7643376E-007
2	1	0	1	6.745619829591305E+001	-3.2600930E-001	-3.2606283E-001	-1.666453478798752E-003	5.4336851E-007
2	1	0	0	6.795689828326431E+001	-3.2100233E-001	-3.2104403E-001	-1.517082297581962E-003	4.8705022E-007
2	1	0	0	6.845759827061556E+001	-3.1599531E-001	-3.1607589E-001	-1.488940376045557E-003	4.7061815E-007
2	1	0	1	6.895819825796934E+001	-3.1098932E-001	-3.1103837E-001	-1.437302464680349E-003	4.4705621E-007
2	1	0	0	6.945879824532312E+001	-3.0598330E-001	-3.0601516E-001	-1.471689031605890E-003	4.5035915E-007
2	1	0	1	6.995939823267690E+001	-3.0097735E-001	-3.0104065E-001	-1.402000435165363E-003	4.2205912E-007
2	1	0	0	7.045999822003068E+001	-2.9597127E-001	-2.9600489E-001	-1.338959791168665E-003	3.9633863E-007
2	1	0	1	7.096059820738446E+001	-2.9096526E-001	-2.9100332E-001	-1.300249271433148E-003	3.7837685E-007
2	1	0	0	7.146119819473824E+001	-2.8595927E-001	-2.8600699E-001	-1.247389802498212E-003	3.5676220E-007
2	1	0	1	7.196189818208950E+001	-2.8095227E-001	-2.8100869E-001	-1.217868906493278E-003	3.4223174E-007
2	1	0	1	7.246259816944075E+001	-2.7594525E-001	-2.7597421E-001	-1.132385924903185E-003	3.1250931E-007
2	1	0	0	7.296319815679453E+001	-2.7093923E-001	-2.7097240E-001	-1.039795353241469E-003	2.8175583E-007
2	1	0	1	7.346379814414831E+001	-2.6593316E-001	-2.6596543E-001	-1.015021781671028E-003	2.6996071E-007
2	1	0	0	7.396439813150209E+001	-2.6092717E-001	-2.6097575E-001	-9.603065538348596E-004	2.5061672E-007
2	1	0	1	7.446499811885587E+001	-2.5592121E-001	-2.5593230E-001	-9.469263271168690E-004	2.4234905E-007
2	1	0	0	7.496559810620965E+001	-2.5091514E-001	-2.5095236E-001	-8.832929002934552E-004	2.2166444E-007
2	1	0	1	7.546619809356343E+001	-2.4590911E-001	-2.4596407E-001	-8.223390211235006E-004	2.0226585E-007
2	1	0	0	7.596679808091722E+001	-2.4090312E-001	-2.4097292E-001	-8.436889520023871E-004	2.0330619E-007
2	1	0	1	7.646749806826847E+001	-2.3589611E-001	-2.3596510E-001	-8.258487330668569E-004	1.9487148E-007
2	1	0	1	7.696819805561972E+001	-2.3088913E-001	-2.3097035E-001	-7.807008675459939E-004	1.8031875E-007
2	1	0	0	7.746879804297350E+001	-2.2588311E-001	-2.2596253E-001	-7.037530942189973E-004	1.5902184E-007
2	1	0	1	7.796939803032728E+001	-2.2087710E-001	-2.2093281E-001	-7.168218623445433E-004	1.5836947E-007
2	1	0	0	7.846999801768106E+001	-2.1587110E-001	-2.1593574E-001	-6.850969552329679E-004	1.4793692E-007
2	1	0	1	7.897059800503484E+001	-2.1086511E-001	-2.1092446E-001	-6.523618599690514E-004	1.3759907E-007
2	1	0	0	7.947119799238862E+001	-2.0585907E-001	-2.0593636E-001	-6.251104316688984E-004	1.2873296E-007
2	1	0	1	7.997179797974241E+001	-2.0085308E-001	-2.0094126E-001	-5.560788624494888E-004	1.1173919E-007
2	1	0	0	8.047239796709619E+001	-1.9584705E-001	-1.9592623E-001	-5.435445277999292E-004	1.0649463E-007
2	1	0	1	8.097309795444744E+001	-1.9084005E-001	-1.9089662E-001	-4.876411598495551E-004	9.3089049E-008
2	1	0	1	8.147379794179869E+001	-1.8583307E-001	-1.8588938E-001	-4.916067803308576E-004	9.1384479E-008
2	1	0	0	8.197439792915247E+001	-1.8082707E-001	-1.8087937E-001	-4.380183117166040E-004	7.9228478E-008
2	1	0	1	8.247499791650625E+001	-1.7582099E-001	-1.7587231E-001	-4.124016761262641E-004	7.2530035E-008
2	1	0	0	8.297559790386003E+001	-1.7081499E-001	-1.7086558E-001	-3.958459235119949E-004	6.7636442E-008
2	1	0	1	8.347619789121381E+001	-1.6580902E-001	-1.6585484E-001	-3.155539177927558E-004	5.2336144E-008
2	1	0	0	8.397679787856760E+001	-1.6080301E-001	-1.6083336E-001	-2.963837003562616E-004	4.7668387E-008
2	1	0	1	8.447739786592138E+001	-1.5579697E-001	-1.5583217E-001	-2.704723023567255E-004	4.2148287E-008
2	1	0	0	8.497799785327516E+001	-1.5079097E-001	-1.5083022E-001	-3.000908344062371E-004	4.5262770E-008
2	1	0	1	8.547869784062641E+001	-1.4578396E-001	-1.4582255E-001	-2.934398332566674E-004	4.2790145E-008
2	1	0	1	8.597939782797766E+001	-1.4077696E-001	-1.4079213E-001	-2.592774634295318E-004	3.6504225E-008
2	1	0	0	8.647999781533144E+001	-1.3577096E-001	-1.3579832E-001	-2.301445760760903E-004	3.1253247E-008
2	1	0	1	8.698059780268522E+001	-1.3076492E-001	-1.3079458E-001	-1.880962115871361E-004	2.4601967E-008
2	1	0	0	8.748119779003900E+001	-1.2575890E-001	-1.2579688E-001	-1.845667869221219E-004	2.3217927E-008
2	1	0	1	8.798179777739279E+001	-1.2075283E-001	-1.2077095E-001	-1.790892909623917E-004	2.1628782E-008
2	1	0	0	8.848239776474657E+001	-1.1574685E-001	-1.1576978E-001	-1.419355680178546E-004	1.6431850E-008
2	1	0	1	8.898299775210035E+001	-1.1074086E-001	-1.1077142E-001	-1.426760930077656E-004	1.5804433E-008
2	1	0	0	8.948359773945413E+001	-1.0573485E-001	-1.0575347E-001	-1.348683992367474E-004	1.4262801E-008
2	1	0	0	8.998439772680285E+001	-1.0072687E-001	-1.0073911E-001	-1.407985965953111E-004	1.4183926E-008
2	1	0	1	9.048499771415663E+001	-9.5720880E-002	-9.5737606E-002	-1.336597399231691E-004	1.2796264E-008
2	1	0	0	9.098559770151041E+001	-9.0714820E-002	-9.0755306E-002	-1.159357641442477E-004	1.0521786E-008
2	1	0	1	9.148619768886419E+001	-8.5708819E-002	-8.5741147E-002	-8.747498043177313E-005	7.5002049E-009
2	1	0	0	9.198679767621798E+001	-8.0702826E-002	-8.0732435E-002	-7.953337042827596E-005	6.4209225E-009
2	1	0	1	9.248739766357176E+001	-7.5696781E-002	-7.5714655E-002	-7.825524706054948E-005	5.9250689E-009
2	1	0	0	9.298799765092554E+001	-7.0690766E-002	-7.0724480E-002	-8.384759063532305E-005	5.9300773E-009
2	1	0	1	9.348859763827932E+001	-6.5684773E-002	-6.5713979E-002	-6.132625410035773E-005	4.0299923E-009
2	1	0	0	9.398929762563057E+001	-6.0677767E-002	-6.0700718E-002	-3.276781616408700E-005	1.9890301E-009
2	1	0	0	9.448999761298182E+001	-5.5670779E-002	-5.5695467E-002	-1.735574718112913E-005	9.6663644E-010
2	1	0	1	9.499059760033560E+001	-5.0664775E-002	-5.0695784E-002	-1.257322959690689E-005	6.3740974E-010
2	1	0	0	9.549119758768938E+001	-4.5658723E-002	-4.5690935E-002	-6.446036315802930E-006	2.9452543E-010
2	1	0	1	9.599179757504317E+001	-4.0652730E-002	-4.0672719E-002	-1.794886707943280E-006	7.3002923E-011
2	1	0	0	9.649239756239695E+001	-3.5646725E-002	-3.5681821E-002	-3.416990125475162E-006	1.2192443E-010
2	1	0	1	9.699299754975073E+001	-3.0640721E-002	-3.0663863E-002	1.281057537255275E-005	3.9282172E-010
2	1	0	0	9.749359753710451E+001	-2.5634687E-002	-2.5667928E-002	6.546730714385736E-006	1.6804101E-010
2	1	0	1	9.799419752445829E+001	-2.0628672E-002	-2.0640368E-002	1.487424529385276E-005	3.0700989E-010
2	1	0	0	9.849489751180954E+001	-1.5621724E-002	-1.5641414E-002	2.277043858205144E-005	3.5616185E-010
2	1	0	0	9.899559749916079E+001	-1.0614679E-002	-1.0670464E-002	3.706278607741391E-005	3.9547710E-010
2	1	0	1	9.949619748651457E+001	-5.6086816E-003	-5.6485534E-003	4.616988249002527E-005	2.6079305E-010
2	1	0	0	9.999679747386836E+001	-6.0268439E-004	-6.4404996E-004	5.332481228968521E-005	3.4343844E-011
2	1	0	1	1.004973974612221E+002	4.4033169E-003	4.3622628E-003	5.971946043242013E-005	2.6051197E-010
2	1	0	0	1.009979974485759E+002	9.4093317E-003	9.3717389E-003	6.634359596842474E-005	6.2175487E-010
2	1	0	1	1.014985974359297E+002	1.4415309E-002	1.4392441E-002	7.274437522630209E-005	1.0469692E-009
2	1	0	0	1.019991974232835E+002	1.9421341E-002	1.9404735E-002	8.140539732576571E-005	1.5796502E-009
2	1	0	1	1.024997974106373E+002	2.4427319E-002	2.4381399E-002	8.322897957550824E-005	2.0292390E-009
2	1	0	1	1.030005973979860E+002	2.9435238E-002	2.9402310E-002	8.987083049261286E-005	2.6424101E-009
2	1	0	0	1.035011973853398E+002	3.4441225E-002	3.4416795E-002	9.586813955840198E-005	3.2994740E-009
2	1	0	1	1.040017973726935E+002	3.9447241E-002	3.9418381E-002	9.724079136942633E-005	3.8330747E-009
2	1	0	0	1.045023973600473E+002	4.4453233E-002	4.4424474E-002	1.062381741043716E-004	4.7195750E-009
2	1	0	1	1.050029973474011E+002	4.9459264E-002	4.9435645E-002	1.115993035672336E-004	5.5169838E-009
2	1	0	0	1.055035973347549E+002	5.4465234E-002	5.4445378E-002	1.185588128561289E-004	6.4549792E-009
2	1	0	1	1.060041973221087E+002	5.9471216E-002	5.9436463E-002	1.304277437055236E-004	7.7521634E-009
2	1	0	0	1.065047973094624E+002	6.4477213E-002	6.4439654E-002	1.434606598547500E-004	9.2445553E-009
2	1	0	1	1.070054972968137E+002	6.9484212E-002	6.9464438E-002	1.480686583980712E-004	1.0285506E-008
2	1	0	1	1.075061972841650E+002	7.4491143E-002	7.4464902E-002	1.629818853766924E-004	1.2136431E-008
2	1	0	0	1.080067972715187E+002	7.9497166E-002	7.9495914E-002	1.607702362322601E-004	1.2780577E-008
2	1	0	1	1.085073972588725E+002	8.4503159E-002	8.4489785E-002	1.588870902115907E-004	1.3424336E-008
2	1	0	0	1.090079972462263E+002	8.9509174E-002	8.9485757E-002	1.829147021986501E-004	1.6368261E-008
2	1	0	1	1.095085972335801E+002	9.4515137E-002	9.4494544E-002	1.763665787321632E-004	1.6665679E-008
2	1	0	0	1.099065972235258E+002	9.8495215E-002	9.8482110E-002	1.682798325926959E-004	1.6572553E-008
2	1	0	0	1.100545972197870E+002	9.9997252E-002	1.0007059E-001	1.769991400319020E-004	1.7712408E-008