EC-Lab ASCII FILE
Nb header lines : 55                          

I-V Characterization

Run on channel : 1 (SN 6514)
User : 
CE vs. WE compliance from -10 V to 10 V
Electrode connection : standard
Ewe ctrl range : min = -1.10 V, max = 0.20 V
Safety Limits :
	Do not start on E overload
Acquisition started on : 06/15/2016 17:31:11
Saved on :
	File : B125-G54-UN-G-D1GB-C1 FW 10mVs_C01.mpr
	Directory : E:\EC-Lab measurements\B125-G54-UN-G-D1GB\
	Host : 10.0.2.15
Device : VSP (SN 0295)
Address : USB
EC-Lab for windows v11.01 (software)
Internet server v11.00 (firmware)
Command interpretor v11.00 (firmware)
Electrode material : 
Initial state : 
Electrolyte : 
Comments : 
Electrode surface area : 0.001 cm²
Characteristic mass : 0.001 g
Equivalent Weight : 0.000 g/eq.
Density : 0.000 g/cm3
tR (h:m:s)          0:00:0.0000         
dER/dt (mV/h)       0.0                 
dER (mV)            0                   
dtR (s)             0.0000              
dE/dt               10.000              
dE/dt unit          mV/s                
Ei (V)              0.100               
vs.                 Ref                 
EL (V)              -1.000              
vs.                 Ref                 
record              <I>                 
dI                  0.000               
unit dI             µA                  
tI (s)              0.1000              
step percent        100                 
N                   100                 
E range min (V)     -1.100              
E range max (V)     0.200               
I Range             Auto                
I Range min         Unset               
I Range max         Unset               
I Range init        Unset               
Bandwidth           5                   

mode	ox/red	error	control changes	time/s	control/V	Ewe/V	<I>/mA	P/W
2	0	1	0	1.449999963369919E-001	9.9075668E-002	9.9080972E-002	1.106151075363160E+000	1.0959852E-004
2	0	0	1	3.977999899507267E-001	9.6547566E-002	9.6503533E-002	1.108625644442798E+000	1.0698629E-004
2	0	0	0	8.983999773045070E-001	9.1541573E-002	9.1501229E-002	1.083277488533637E+000	9.9121222E-005
2	0	0	1	1.398999964658287E+000	8.6535528E-002	8.6504214E-002	1.054091309165280E+000	9.1183341E-005
2	0	0	1	1.899799952007015E+000	8.1527635E-002	8.1493847E-002	1.033283270139016E+000	8.4206229E-005
2	0	0	0	2.400399939360796E+000	7.6521620E-002	7.6484926E-002	1.020938431864174E+000	7.8086399E-005
2	0	0	1	2.900999926714576E+000	7.1515627E-002	7.1462162E-002	1.012694776449269E+000	7.2369359E-005
2	0	0	0	3.401599914068356E+000	6.6509657E-002	6.6475525E-002	1.003914353815651E+000	6.6735731E-005
2	0	0	1	3.902199901422136E+000	6.1503652E-002	6.1477203E-002	9.990076373677210E-001	6.1416198E-005
2	0	0	0	4.402799888775917E+000	5.6497626E-002	5.6456245E-002	9.957316149501807E-001	5.6215267E-005
2	0	0	1	4.903399876129697E+000	5.1491670E-002	5.1443219E-002	9.929633552192279E-001	5.1081232E-005
2	0	0	0	5.404099863480951E+000	4.6484679E-002	4.6441577E-002	9.853439030862994E-001	4.5760924E-005
2	0	0	0	5.904799850832205E+000	4.1477691E-002	4.1421119E-002	9.833397621230926E-001	4.0731033E-005
2	0	0	1	6.405399838185986E+000	3.6471713E-002	3.6413383E-002	9.817328270747705E-001	3.5748213E-005
2	0	0	0	6.905999825539766E+000	3.1465709E-002	3.1408463E-002	9.774170190652089E-001	3.0699164E-005
2	0	0	1	7.406599812893546E+000	2.6459707E-002	2.6407400E-002	9.740626856106291E-001	2.5722464E-005
2	0	0	0	7.907199800247326E+000	2.1453727E-002	2.1403531E-002	9.728819587667639E-001	2.0823109E-005
2	0	0	1	8.407799787601107E+000	1.6447715E-002	1.6386427E-002	9.712309165940622E-001	1.5915004E-005
2	0	0	0	8.908399774954887E+000	1.1441719E-002	1.1383948E-002	9.678142993458341E-001	1.1017548E-005
2	0	0	0	9.409199762303615E+000	6.4337836E-003	6.3777273E-003	9.664925756002134E-001	6.1640262E-006
2	0	0	1	9.909799749657395E+000	1.4277762E-003	1.3725767E-003	9.630116729470393E-001	1.3218074E-006
2	0	0	0	1.041039973701118E+001	-3.5782205E-003	-3.6499191E-003	9.568161994729447E-001	3.4923016E-006
2	0	0	1	1.091099972436496E+001	-8.5842581E-003	-8.6492896E-003	9.555712180157734E-001	8.2650122E-006
2	0	0	0	1.141159971171874E+001	-1.3590236E-002	-1.3636465E-002	9.554249487019923E-001	1.3028619E-005
2	0	0	1	1.191219969907252E+001	-1.8596277E-002	-1.8632190E-002	9.507126734477058E-001	1.7713859E-005
2	0	0	0	1.241279968642630E+001	-2.3602314E-002	-2.3649823E-002	9.495218525491049E-001	2.2456024E-005
2	0	0	1	1.291349967377755E+001	-2.8609257E-002	-2.8647268E-002	9.473354592101355E-001	2.7138572E-005
2	0	0	1	1.341419966112881E+001	-3.3616263E-002	-3.3663657E-002	9.437174356583693E-001	3.1768981E-005
2	0	0	0	1.391479964848259E+001	-3.8622286E-002	-3.8648721E-002	9.430743531836381E-001	3.6448619E-005
2	0	0	1	1.441539963583637E+001	-4.3628287E-002	-4.3668028E-002	9.405184601136529E-001	4.1070587E-005
2	0	0	0	1.491599962319015E+001	-4.8634320E-002	-4.8668902E-002	9.370270871528037E-001	4.5604080E-005
2	0	0	1	1.541659961054393E+001	-5.3640317E-002	-5.3689145E-002	9.363004370904502E-001	5.0269169E-005
2	0	0	0	1.591719959789771E+001	-5.8646329E-002	-5.8684900E-002	9.305246993702623E-001	5.4607750E-005
2	0	0	1	1.641789958524896E+001	-6.3653357E-002	-6.3708082E-002	9.302834902925436E-001	5.9266578E-005
2	0	0	1	1.691859957260021E+001	-6.8660311E-002	-6.8699546E-002	9.302418907011933E-001	6.3907195E-005
2	0	0	0	1.741919955995400E+001	-7.3666319E-002	-7.3697925E-002	9.281083109702362E-001	6.8399655E-005
2	0	0	1	1.791979954730778E+001	-7.8672387E-002	-7.8710936E-002	9.224821636414458E-001	7.2609437E-005
2	0	0	0	1.842039953466156E+001	-8.3678380E-002	-8.3715118E-002	9.180542363127993E-001	7.6855016E-005
2	0	0	1	1.892099952201534E+001	-8.8684395E-002	-8.8721521E-002	9.180293505975392E-001	8.1448961E-005
2	0	0	0	1.942159950936912E+001	-9.3690425E-002	-9.3723543E-002	9.167688439662016E-001	8.5922824E-005
2	0	0	1	1.992219949672290E+001	-9.8696463E-002	-9.8737687E-002	9.140063474263509E-001	9.0246875E-005
2	0	0	1	2.042299948407162E+001	-1.0370438E-001	-1.0372362E-001	9.136250715130574E-001	9.4764502E-005
2	0	0	0	2.092359947142540E+001	-1.0871040E-001	-1.0874253E-001	9.098801109575998E-001	9.8942663E-005
2	0	0	1	2.142419945877919E+001	-1.1371644E-001	-1.1373640E-001	9.055999223313158E-001	1.0299967E-004
2	0	0	0	2.192479944613297E+001	-1.1872245E-001	-1.1875252E-001	9.052471464095899E-001	1.0750037E-004
2	0	0	1	2.242539943348675E+001	-1.2372844E-001	-1.2377466E-001	9.033672694522261E-001	1.1181398E-004
2	0	0	0	2.292599942084053E+001	-1.2873447E-001	-1.2875791E-001	9.003324589044963E-001	1.1592492E-004
2	0	0	1	2.342659940819431E+001	-1.3374051E-001	-1.3376309E-001	8.975211943439811E-001	1.2005521E-004
2	0	0	0	2.392729939554556E+001	-1.3874748E-001	-1.3878120E-001	8.964434216063983E-001	1.2440950E-004
2	0	0	0	2.442799938289681E+001	-1.4375448E-001	-1.4380336E-001	8.929411511573360E-001	1.2840793E-004
2	0	0	1	2.492859937025059E+001	-1.4876050E-001	-1.4880896E-001	8.880121808464434E-001	1.3214417E-004
2	0	0	0	2.542919935760438E+001	-1.5376653E-001	-1.5381293E-001	8.872502202118238E-001	1.3647055E-004
2	0	0	1	2.592979934495816E+001	-1.5877256E-001	-1.5883186E-001	8.849123348603545E-001	1.4055228E-004
2	0	0	0	2.643039933231194E+001	-1.6377856E-001	-1.6384174E-001	8.809544040295361E-001	1.4433710E-004
2	0	0	1	2.693099931966572E+001	-1.6878460E-001	-1.6884114E-001	8.791114375018818E-001	1.4843018E-004
2	0	0	0	2.743159930701950E+001	-1.7379062E-001	-1.7385119E-001	8.779500310808519E-001	1.5263265E-004
2	0	0	0	2.793239929436822E+001	-1.7879853E-001	-1.7886651E-001	8.741162961254081E-001	1.5635013E-004
2	0	0	1	2.843299928172200E+001	-1.8380460E-001	-1.8387637E-001	8.708840045757926E-001	1.6013498E-004
2	0	0	0	2.893359926907578E+001	-1.8881063E-001	-1.8888363E-001	8.660642050102032E-001	1.6358536E-004
2	0	0	1	2.943419925642957E+001	-1.9381663E-001	-1.9389434E-001	8.656280204636833E-001	1.6784038E-004
2	0	0	0	2.993479924378335E+001	-1.9882260E-001	-1.9889595E-001	8.612467873204483E-001	1.7129850E-004
2	0	0	1	3.043539923113713E+001	-2.0382868E-001	-2.0391248E-001	8.584423413071658E-001	1.7504711E-004
2	0	0	0	3.093599921849091E+001	-2.0883471E-001	-2.0891248E-001	8.556854955640620E-001	1.7876338E-004
2	0	0	1	3.143669920584216E+001	-2.1384162E-001	-2.1392497E-001	8.531503910324094E-001	1.8251018E-004
2	0	0	1	3.193739919319341E+001	-2.1884865E-001	-2.1892588E-001	8.483687795037760E-001	1.8572988E-004
2	0	0	0	3.243799918054719E+001	-2.2385468E-001	-2.2392564E-001	8.463217336481019E-001	1.8951313E-004
2	0	0	1	3.293859916790097E+001	-2.2886071E-001	-2.2893907E-001	8.435436586030107E-001	1.9312010E-004
2	0	0	0	3.343919915525476E+001	-2.3386668E-001	-2.3393831E-001	8.408235950815022E-001	1.9670084E-004
2	0	0	1	3.393979914260854E+001	-2.3887269E-001	-2.3895726E-001	8.358420042733163E-001	1.9973051E-004
2	0	0	0	3.444039912996232E+001	-2.4387874E-001	-2.4394330E-001	8.334505723529606E-001	2.0331469E-004
2	0	0	1	3.494109911731357E+001	-2.4888571E-001	-2.4894758E-001	8.297205926843727E-001	2.0655693E-004
2	0	0	1	3.544179910466482E+001	-2.5389272E-001	-2.5394556E-001	8.265410138913003E-001	2.0989642E-004
2	0	0	0	3.594239909201860E+001	-2.5889868E-001	-2.5895289E-001	8.236140715539371E-001	2.1327724E-004
2	0	0	1	3.644299907937238E+001	-2.6390469E-001	-2.6396644E-001	8.178815799644634E-001	2.1589329E-004
2	0	0	0	3.694359906672616E+001	-2.6891080E-001	-2.6894924E-001	8.139417737362418E-001	2.1890902E-004
2	0	0	1	3.744419905407995E+001	-2.7391678E-001	-2.7397156E-001	8.113196491749275E-001	2.2227851E-004
2	0	0	0	3.794479904143373E+001	-2.7892280E-001	-2.7897191E-001	8.051176749274092E-001	2.2460522E-004
2	0	0	1	3.844539902878751E+001	-2.8392887E-001	-2.8398654E-001	8.013926457645084E-001	2.2758472E-004
2	0	0	0	3.894609901613876E+001	-2.8893578E-001	-2.8898710E-001	7.978052922794561E-001	2.3055544E-004
2	0	0	0	3.944679900349001E+001	-2.9394275E-001	-2.9398608E-001	7.917672370578810E-001	2.3276855E-004
2	0	0	1	3.994739899084379E+001	-2.9894882E-001	-2.9900977E-001	7.880602337140807E-001	2.3563771E-004
2	0	0	0	4.044799897819757E+001	-3.0395487E-001	-3.0402270E-001	7.840012525134252E-001	2.3835417E-004
2	0	0	1	4.094859896555135E+001	-3.0896091E-001	-3.0902424E-001	7.788398516221982E-001	2.4068040E-004
2	0	0	0	4.144919895290514E+001	-3.1396693E-001	-3.1402263E-001	7.744349009095224E-001	2.4319008E-004
2	0	0	1	4.194979894025892E+001	-3.1897298E-001	-3.1904164E-001	7.678145631808277E-001	2.4496482E-004
2	0	0	0	4.245049892761017E+001	-3.2397988E-001	-3.2403550E-001	7.634268385790663E-001	2.4737741E-004
2	0	0	0	4.295119891496142E+001	-3.2898685E-001	-3.2902437E-001	7.575698269973667E-001	2.4925894E-004
2	0	0	1	4.345179890231520E+001	-3.3399290E-001	-3.3402440E-001	7.542676644721489E-001	2.5194380E-004
2	0	0	0	4.395239888966898E+001	-3.3899891E-001	-3.3903235E-001	7.479839645526809E-001	2.5359076E-004
2	0	0	1	4.445299887702276E+001	-3.4400496E-001	-3.4404874E-001	7.414074371195198E-001	2.5508029E-004
2	0	0	0	4.495359886437655E+001	-3.4901100E-001	-3.4907019E-001	7.349363547156150E-001	2.5654439E-004
2	0	0	1	4.545419885173033E+001	-3.5401705E-001	-3.5406774E-001	7.284872747812692E-001	2.5793383E-004
2	0	0	0	4.595479883908411E+001	-3.5902300E-001	-3.5908008E-001	7.220177559635959E-001	2.5926219E-004
2	0	0	0	4.645559882643283E+001	-3.6403096E-001	-3.6409476E-001	7.159540533868327E-001	2.6067512E-004
2	0	0	1	4.695619881378661E+001	-3.6903691E-001	-3.6909351E-001	7.093661872021997E-001	2.6182245E-004
2	0	0	0	4.745679880114039E+001	-3.7404293E-001	-3.7410715E-001	7.025999120813182E-001	2.6284766E-004
2	0	0	1	4.795739878849417E+001	-3.7904894E-001	-3.7910384E-001	6.948833222618678E-001	2.6343294E-004
2	0	0	0	4.845799877584795E+001	-3.8405505E-001	-3.8411531E-001	6.870801100352466E-001	2.6391799E-004
2	0	0	1	4.895859876320174E+001	-3.8906109E-001	-3.8911280E-001	6.819550666911738E-001	2.6535743E-004
2	0	0	0	4.945919875055552E+001	-3.9406717E-001	-3.9414048E-001	6.736856976984864E-001	2.6552682E-004
2	0	0	1	4.995989873790677E+001	-3.9907405E-001	-3.9914155E-001	6.661359675973259E-001	2.6588255E-004
2	0	0	1	5.046059872525802E+001	-4.0408102E-001	-4.0413910E-001	6.578025479805980E-001	2.6584373E-004
2	0	0	0	5.096119871261180E+001	-4.0908700E-001	-4.0913975E-001	6.485476407969815E-001	2.6534661E-004
2	0	0	1	5.146179869996558E+001	-4.1409299E-001	-4.1414776E-001	6.412246382104563E-001	2.6556174E-004
2	0	0	0	5.196239868731936E+001	-4.1909906E-001	-4.1915303E-001	6.326931032395651E-001	2.6519524E-004
2	0	0	1	5.246299867467314E+001	-4.2410514E-001	-4.2415911E-001	6.244042015415303E-001	2.6484672E-004
2	0	0	0	5.296359866202693E+001	-4.2911118E-001	-4.2915401E-001	6.164736657582770E-001	2.6456214E-004
2	0	0	1	5.346429864937818E+001	-4.3411812E-001	-4.3417782E-001	6.054193932210206E-001	2.6285966E-004
2	0	0	1	5.396499863672943E+001	-4.3912506E-001	-4.3919161E-001	5.949591464989594E-001	2.6130106E-004
2	0	0	0	5.446559862408321E+001	-4.4413102E-001	-4.4418457E-001	5.865570357996188E-001	2.6053959E-004
2	0	0	1	5.496619861143699E+001	-4.4913709E-001	-4.4919220E-001	5.767089587787400E-001	2.5905317E-004
2	0	0	0	5.546679859879077E+001	-4.5414311E-001	-4.5420602E-001	5.668895497400221E-001	2.5748464E-004
2	0	0	1	5.596739858614455E+001	-4.5914909E-001	-4.5921350E-001	5.576490250167945E-001	2.5607995E-004
2	0	0	0	5.646799857349833E+001	-4.6415523E-001	-4.6421707E-001	5.469972948917539E-001	2.5392548E-004
2	0	0	1	5.696859856085212E+001	-4.6916127E-001	-4.6921489E-001	5.361703076823807E-001	2.5157910E-004
2	0	0	0	5.746929854820337E+001	-4.7416809E-001	-4.7423479E-001	5.251862949145596E-001	2.4906162E-004
2	0	0	0	5.796999853555462E+001	-4.7917515E-001	-4.7922710E-001	5.136073551706932E-001	2.4613456E-004
2	0	0	1	5.847059852290840E+001	-4.8418111E-001	-4.8425996E-001	5.026622372367280E-001	2.4341920E-004
2	0	0	0	5.897119851026218E+001	-4.8918712E-001	-4.8924977E-001	4.918887772423028E-001	2.4065647E-004
2	0	0	1	5.948929849717388E+001	-4.9436823E-001	-4.9440846E-001	4.790793322598303E-001	2.3686087E-004
2	0	0	1	6.000739848408557E+001	-4.9954921E-001	-4.9958068E-001	4.680263268800182E-001	2.3381691E-004
2	0	0	1	6.050819847143430E+001	-5.0455725E-001	-5.0458854E-001	4.560895209938751E-001	2.3013755E-004
2	0	0	0	6.100879845878808E+001	-5.0956327E-001	-5.0958276E-001	4.431837858907723E-001	2.2583881E-004
2	0	0	1	6.150939844614186E+001	-5.1456928E-001	-5.1459301E-001	4.307814444854161E-001	2.2167712E-004
2	0	0	0	6.200999843349564E+001	-5.1957524E-001	-5.1961631E-001	4.187287454302462E-001	2.1757829E-004
2	0	0	1	6.251059842084942E+001	-5.2458113E-001	-5.2460212E-001	4.064146010396161E-001	2.1320596E-004
2	0	0	0	6.301119840820320E+001	-5.2958721E-001	-5.2961403E-001	3.918927426468581E-001	2.0755190E-004
2	0	0	1	6.351179839555698E+001	-5.3459322E-001	-5.3461730E-001	3.792760387500469E-001	2.0276754E-004
2	0	0	0	6.401249838290823E+001	-5.3960019E-001	-5.3962559E-001	3.663922567511835E-001	1.9771463E-004
2	0	0	0	6.451319837025949E+001	-5.4460734E-001	-5.4463124E-001	3.521468562368746E-001	1.9179018E-004
2	0	0	1	6.501379835761327E+001	-5.4961342E-001	-5.4963869E-001	3.391084737931109E-001	1.8638714E-004
2	0	0	0	6.551439834496705E+001	-5.5461937E-001	-5.5465478E-001	3.251786650851844E-001	1.8036189E-004
2	0	0	1	6.601499833232083E+001	-5.5962527E-001	-5.5965990E-001	3.104307070294320E-001	1.7373562E-004
2	0	0	0	6.651559831967461E+001	-5.6463134E-001	-5.6466138E-001	2.961375366981320E-001	1.6721743E-004
2	0	0	1	6.701619830702839E+001	-5.6963730E-001	-5.6966197E-001	2.826050225875837E-001	1.6098934E-004
2	0	0	0	6.751689829437964E+001	-5.7464445E-001	-5.7468939E-001	2.682582093780086E-001	1.5416514E-004
2	0	0	0	6.801759828173090E+001	-5.7965147E-001	-5.7967913E-001	2.533910389604817E-001	1.4688550E-004
2	0	0	1	6.851819826908468E+001	-5.8465749E-001	-5.8467114E-001	2.387494825500105E-001	1.3958993E-004
2	0	0	0	6.901879825643846E+001	-5.8966368E-001	-5.8968633E-001	2.237338879798875E-001	1.3193281E-004
2	0	0	1	6.951939824379224E+001	-5.9466946E-001	-5.9470171E-001	2.094844456563112E-001	1.2458075E-004
2	0	0	0	7.001999823114602E+001	-5.9967548E-001	-5.9970534E-001	1.942642792675068E-001	1.1650132E-004
2	0	0	1	7.052059821849980E+001	-6.0468143E-001	-6.0471553E-001	1.791576269118202E-001	1.0833940E-004
2	0	0	0	7.102119820585358E+001	-6.0968751E-001	-6.0970795E-001	1.641730123443752E-001	1.0009759E-004
2	0	0	1	7.152189819320483E+001	-6.1469436E-001	-6.1473489E-001	1.485339413175867E-001	9.1308997E-005
2	0	0	1	7.202259818055609E+001	-6.1970156E-001	-6.1974591E-001	1.329247959937724E-001	8.2379600E-005
2	0	0	0	7.252319816790987E+001	-6.2470752E-001	-6.2473869E-001	1.176116322344470E-001	7.3476534E-005
2	0	0	1	7.302379815526365E+001	-6.2971359E-001	-6.2976247E-001	1.016384946005074E-001	6.4008113E-005
2	0	0	0	7.352439814261743E+001	-6.3471967E-001	-6.3475007E-001	8.599637850184183E-002	5.4586206E-005
2	0	0	1	7.402499812997121E+001	-6.3972545E-001	-6.3975215E-001	7.047407729059252E-002	4.5085941E-005
2	0	0	0	7.452559811732499E+001	-6.4473164E-001	-6.4474350E-001	5.483930370325463E-002	3.5357283E-005
2	0	0	1	7.504379810423416E+001	-6.4991355E-001	-6.4992744E-001	3.813268651829591E-002	2.4783480E-005
2	0	0	0	7.556199809114332E+001	-6.5509558E-001	-6.5508801E-001	2.178844000194352E-002	1.4273346E-005
2	0	0	1	7.608009807805502E+001	-6.6027647E-001	-6.6027522E-001	5.341381721482397E-003	3.5267819E-006
2	0	0	1	7.661579806452210E+001	-6.6563374E-001	-6.6562533E-001	-1.200265696561455E-002	7.9892725E-006
2	0	0	0	7.713399805143126E+001	-6.7081565E-001	-6.7080754E-001	-2.854383780225064E-002	1.9147421E-005
2	0	0	1	7.763459803878504E+001	-6.7582172E-001	-6.7582685E-001	-4.460910637967780E-002	3.0148032E-005
2	0	0	0	7.813519802613882E+001	-6.8082774E-001	-6.8082839E-001	-6.079341347569112E-002	4.1389882E-005
2	0	0	1	7.863579801349260E+001	-6.8583357E-001	-6.8583357E-001	-7.686568635301283E-002	5.2717067E-005
2	0	0	0	7.913639800084638E+001	-6.9083977E-001	-6.9082928E-001	-9.307906801964713E-002	6.4301748E-005
2	0	0	1	7.965459798775555E+001	-6.9602162E-001	-6.9602537E-001	-1.098764640548859E-001	7.6476805E-005
2	0	0	0	8.017279797466472E+001	-7.0120370E-001	-7.0122117E-001	-1.266276122868875E-001	8.8793960E-005
2	0	0	1	8.067339796201850E+001	-7.0620966E-001	-7.0621854E-001	-1.428163243304938E-001	1.0085954E-004
2	0	0	0	8.117399794937228E+001	-7.1121579E-001	-7.1123278E-001	-1.590907459680231E-001	1.1315056E-004
2	0	0	1	8.167459793672606E+001	-7.1622187E-001	-7.1623129E-001	-1.752186708475920E-001	1.2549710E-004
2	0	0	0	8.217519792407984E+001	-7.2122771E-001	-7.2122747E-001	-1.914952936567502E-001	1.3811166E-004
2	0	0	1	8.267579791143362E+001	-7.2623384E-001	-7.2623456E-001	-2.077679697427661E-001	1.5088829E-004
2	0	0	0	8.317649789878487E+001	-7.3124057E-001	-7.3124033E-001	-2.238805261904262E-001	1.6371047E-004
2	0	0	0	8.367719788613613E+001	-7.3624784E-001	-7.3623389E-001	-2.400771242526906E-001	1.7675292E-004
2	0	0	1	8.417779787348991E+001	-7.4125367E-001	-7.4123573E-001	-2.562104840036596E-001	1.8991236E-004
2	0	0	0	8.467839786084369E+001	-7.4625993E-001	-7.4624956E-001	-2.726506219207328E-001	2.0346540E-004
2	0	0	1	8.517899784819747E+001	-7.5126582E-001	-7.5125325E-001	-2.885368543867761E-001	2.1676425E-004
2	0	0	0	8.567959783555125E+001	-7.5627184E-001	-7.5627488E-001	-3.046359753914034E-001	2.3038854E-004
2	0	0	1	8.618019782290503E+001	-7.6127803E-001	-7.6129591E-001	-3.209450418427755E-001	2.4433414E-004
2	0	0	0	8.668089781025628E+001	-7.6628470E-001	-7.6630086E-001	-3.370663762312947E-001	2.5829425E-004
2	0	0	0	8.718159779760754E+001	-7.7129191E-001	-7.7130133E-001	-3.528642606329857E-001	2.7216467E-004
2	0	0	1	8.768219778496132E+001	-7.7629763E-001	-7.7631104E-001	-3.685800428218671E-001	2.8613277E-004
2	0	0	0	8.818279777231510E+001	-7.8130394E-001	-7.8132457E-001	-3.846068748387927E-001	3.0050281E-004
2	0	0	1	8.868339775966888E+001	-7.8630978E-001	-7.8632241E-001	-4.003370496309531E-001	3.1479399E-004
2	0	0	0	8.918399774702266E+001	-7.9131591E-001	-7.9133767E-001	-4.165456258933322E-001	3.2962824E-004
2	0	0	1	8.968459773437644E+001	-7.9632211E-001	-7.9633802E-001	-4.325158645446052E-001	3.4442882E-004
2	0	0	0	9.018519772173022E+001	-8.0132782E-001	-8.0134600E-001	-4.482511218028824E-001	3.5920425E-004
2	0	0	1	9.068589770908147E+001	-8.0633491E-001	-8.0634773E-001	-4.633941327834328E-001	3.7365680E-004
2	0	0	1	9.118659769643273E+001	-8.1134170E-001	-8.1136632E-001	-4.793224939014774E-001	3.8890613E-004
2	0	0	0	9.168719768378651E+001	-8.1634796E-001	-8.1637841E-001	-4.946897842583811E-001	4.0385406E-004
2	0	0	1	9.218779767114029E+001	-8.2135379E-001	-8.2138270E-001	-5.112538799126787E-001	4.1993510E-004
2	0	0	0	9.268839765849407E+001	-8.2635999E-001	-8.2639033E-001	-5.269413423744549E-001	4.3545922E-004
2	0	0	1	9.318899764584785E+001	-8.3136606E-001	-8.3140707E-001	-5.416608513425105E-001	4.5034065E-004
2	0	0	0	9.368959763320163E+001	-8.3637202E-001	-8.3639574E-001	-5.571839184390210E-001	4.6602625E-004
2	0	0	1	9.419029762055288E+001	-8.4137911E-001	-8.4138310E-001	-5.731928636061170E-001	4.8227480E-004
2	0	0	1	9.469099760790414E+001	-8.4638572E-001	-8.4641635E-001	-5.887436943418516E-001	4.9832230E-004
2	0	0	0	9.519159759525792E+001	-8.5139191E-001	-8.5143071E-001	-6.035537167876059E-001	5.1388418E-004
2	0	0	1	9.569219758261170E+001	-8.5639787E-001	-8.5641813E-001	-6.176557794176158E-001	5.2897161E-004
2	0	0	0	9.619279756996548E+001	-8.6140412E-001	-8.6143070E-001	-6.336014169069388E-001	5.4580369E-004
2	0	0	1	9.669339755731926E+001	-8.6640996E-001	-8.6645126E-001	-6.490767882328576E-001	5.6239340E-004
2	0	0	0	9.719399754467304E+001	-8.7141609E-001	-8.7144405E-001	-6.639122789332603E-001	5.7856238E-004
2	0	0	1	9.769469753202429E+001	-8.7642312E-001	-8.7644541E-001	-6.792231332472909E-001	5.9530197E-004
2	0	0	1	9.819539751937555E+001	-8.8142979E-001	-8.8143742E-001	-6.950037453165259E-001	6.1260234E-004
2	0	0	0	9.869599750672933E+001	-8.8643605E-001	-8.8645905E-001	-7.099157065022190E-001	6.2931119E-004
2	0	0	1	9.919659749408311E+001	-8.9144182E-001	-8.9145488E-001	-7.247879774248283E-001	6.4611580E-004
2	0	0	0	9.969719748143689E+001	-8.9644808E-001	-8.9646250E-001	-7.401983204621603E-001	6.6356006E-004
2	0	0	1	1.001977974687907E+002	-9.0145391E-001	-9.0146536E-001	-7.543497292296575E-001	6.8002014E-004
2	0	0	0	1.006983974561444E+002	-9.0646011E-001	-9.0647197E-001	-7.689884756694285E-001	6.9706648E-004
2	0	0	1	1.011989974434982E+002	-9.1146618E-001	-9.1147631E-001	-7.849971548162982E-001	7.1550632E-004
2	0	0	0	1.016996974308495E+002	-9.1647291E-001	-9.1647500E-001	-7.995556636375842E-001	7.3277275E-004
2	0	0	0	1.022003974182007E+002	-9.2148012E-001	-9.2150420E-001	-8.141007539515055E-001	7.5019727E-004
2	0	0	1	1.027009974055545E+002	-9.2648590E-001	-9.2650640E-001	-8.289269070950684E-001	7.6800608E-004
2	0	0	0	1.032015973929083E+002	-9.3149215E-001	-9.3150330E-001	-8.449647445713839E-001	7.8708743E-004
2	0	0	1	1.037021973802621E+002	-9.3649793E-001	-9.3649924E-001	-8.594785750578851E-001	8.0490101E-004
2	0	0	0	1.042027973676159E+002	-9.4150412E-001	-9.4151843E-001	-8.732315961923431E-001	8.2216365E-004
2	0	0	1	1.047033973549696E+002	-9.4651020E-001	-9.4653797E-001	-8.882646068125668E-001	8.4077619E-004
2	0	0	0	1.052040973423209E+002	-9.5151699E-001	-9.5152336E-001	-9.041663816305583E-001	8.6033542E-004
2	0	0	0	1.057047973296721E+002	-9.5652419E-001	-9.5651269E-001	-9.195373665836106E-001	8.7954919E-004
2	0	0	1	1.062053973170259E+002	-9.6152985E-001	-9.6153873E-001	-9.337934219478607E-001	8.9787855E-004
2	0	0	0	1.067059973043797E+002	-9.6653616E-001	-9.6655720E-001	-9.477647093257806E-001	9.1606879E-004
2	0	0	1	1.072065972917335E+002	-9.7154194E-001	-9.7154528E-001	-9.622279653459902E-001	9.3484804E-004
2	0	0	0	1.077071972790873E+002	-9.7654814E-001	-9.7655052E-001	-9.777354024225164E-001	9.5480803E-004
2	0	0	1	1.082077972664410E+002	-9.8155409E-001	-9.8156691E-001	-9.921231922337950E-001	9.7383530E-004
2	0	0	0	1.087083972537948E+002	-9.8656011E-001	-9.8658574E-001	-1.006553196786085E+000	9.9305098E-004
2	0	0	0	1.092266972407015E+002	-9.9174333E-001	-9.9173594E-001	-1.021127954782102E+000	1.0126893E-003
2	0	0	0	1.097447972276132E+002	-9.9692410E-001	-9.9698132E-001	-1.037224471483498E+000	1.0340934E-003
2	0	0	1	1.100225972205953E+002	-9.9970078E-001	-9.9972248E-001	-1.045644027188416E+000	1.0453538E-003
2	0	0	0	1.100501972198981E+002	-1.0000008E+000	-9.9991983E-001	-1.052557505094089E+000	1.0524731E-003