EC-Lab ASCII FILE
Nb header lines : 55                          

I-V Characterization

Run on channel : 1 (SN 6514)
User : 
CE vs. WE compliance from -10 V to 10 V
Electrode connection : standard
Ewe ctrl range : min = -1.10 V, max = 0.20 V
Safety Limits :
	Do not start on E overload
Acquisition started on : 06/15/2016 19:29:46
Saved on :
	File : B125-G54-UN-G-D1GB-C11 BW 100mVs_01_IVC_C01.mpr
	Directory : E:\EC-Lab measurements\B125-G54-UN-G-D1GB\
	Host : 10.0.2.15
Device : VSP (SN 0295)
Address : USB
EC-Lab for windows v11.01 (software)
Internet server v11.00 (firmware)
Command interpretor v11.00 (firmware)
Electrode material : 
Initial state : 
Electrolyte : 
Comments : 
Electrode surface area : 0.001 cm²
Characteristic mass : 0.001 g
Equivalent Weight : 0.000 g/eq.
Density : 0.000 g/cm3
tR (h:m:s)          0:00:0.0000         
dER/dt (mV/h)       0.0                 
dER (mV)            0                   
dtR (s)             0.0000              
dE/dt               100.000             
dE/dt unit          mV/s                
Ei (V)              -1.000              
vs.                 Ref                 
EL (V)              0.100               
vs.                 Ref                 
record              <I>                 
dI                  0.000               
unit dI             µA                  
tI (s)              0.1000              
step percent        100                 
N                   100                 
E range min (V)     -1.100              
E range max (V)     0.200               
I Range             Auto                
I Range min         Unset               
I Range max         Unset               
I Range init        Unset               
Bandwidth           5                   

mode	ox/red	error	control changes	time/s	control/V	Ewe/V	<I>/mA	P/W
2	1	0	1	1.399999964633025E-001	-9.9106032E-001	-9.9125278E-001	-1.976482272148132E+000	1.9591935E-003
2	1	0	0	1.652999958241708E-001	-9.8853415E-001	-9.8863524E-001	-2.008981743556575E+000	1.9861502E-003
2	1	0	0	2.153999945585383E-001	-9.8352432E-001	-9.8364133E-001	-2.025428746332450E+000	1.9922955E-003
2	1	0	0	2.653999932954321E-001	-9.7852182E-001	-9.7862309E-001	-2.033745747981479E+000	1.9902706E-003
2	1	0	1	3.154999920297996E-001	-9.7351581E-001	-9.7360706E-001	-2.035626338420890E+000	1.9819001E-003
2	1	0	1	3.655999907641672E-001	-9.6850365E-001	-9.6860737E-001	-2.033623014737547E+000	1.9697822E-003
2	1	0	1	4.155999895010609E-001	-9.6350324E-001	-9.6360654E-001	-2.028709430748854E+000	1.9548777E-003
2	1	0	1	4.655999882379547E-001	-9.5850474E-001	-9.5859599E-001	-2.022008654237087E+000	1.9382894E-003
2	1	0	0	5.157999869697960E-001	-9.5348251E-001	-9.5357001E-001	-2.013472776636501E+000	1.9199873E-003
2	1	0	0	5.657999857066898E-001	-9.4848466E-001	-9.4859523E-001	-2.003436054451662E+000	1.9004499E-003
2	1	0	0	6.157999844435835E-001	-9.4348407E-001	-9.4359261E-001	-1.990952507701625E+000	1.8786481E-003
2	1	0	1	6.658999831779511E-001	-9.3847233E-001	-9.3857247E-001	-1.976088555108017E+000	1.8547024E-003
2	1	0	1	7.159999819123186E-001	-9.3346572E-001	-9.3357682E-001	-1.959075546608728E+000	1.8289476E-003
2	1	0	1	7.659999806492124E-001	-9.2846310E-001	-9.2856508E-001	-1.940308971878181E+000	1.8017031E-003
2	1	0	0	8.160999793835799E-001	-9.2345291E-001	-9.2355293E-001	-1.920198156597621E+000	1.7734047E-003
2	1	0	0	8.661999781179475E-001	-9.1844505E-001	-9.1854322E-001	-1.896624017266475E+000	1.7421311E-003
2	1	0	0	9.161999768548412E-001	-9.1344219E-001	-9.1355133E-001	-1.871988617957118E+000	1.7101577E-003
2	1	0	1	9.662999755892088E-001	-9.0843481E-001	-9.0853947E-001	-1.844966529436773E+000	1.6762249E-003
2	1	0	1	1.016399974323576E+000	-9.0342396E-001	-9.0351689E-001	-1.814209727503405E+000	1.6391692E-003
2	1	0	1	1.066399973060470E+000	-8.9842200E-001	-8.9851636E-001	-1.782744940645046E+000	1.6018255E-003
2	1	0	1	1.116399971797364E+000	-8.9342517E-001	-8.9351779E-001	-1.747978757133673E+000	1.5618501E-003
2	1	0	0	1.166599970529205E+000	-8.8840318E-001	-8.8848734E-001	-1.712461647429230E+000	1.5215005E-003
2	1	0	0	1.216599969266099E+000	-8.8340330E-001	-8.8349432E-001	-1.675980673603393E+000	1.4807194E-003
2	1	0	0	1.266599968002993E+000	-8.7840474E-001	-8.7849617E-001	-1.638208319178254E+000	1.4391597E-003
2	1	0	1	1.316799966734834E+000	-8.7338251E-001	-8.7348533E-001	-1.597778714228124E+000	1.3956362E-003
2	1	0	1	1.366799965471728E+000	-8.6838460E-001	-8.6849713E-001	-1.556435574200328E+000	1.3517599E-003
2	1	0	1	1.416799964208622E+000	-8.6338353E-001	-8.6349076E-001	-1.514333440408915E+000	1.3076130E-003
2	1	0	0	1.466899962942989E+000	-8.5837203E-001	-8.5847241E-001	-1.471384971609314E+000	1.2631434E-003
2	1	0	0	1.516999961677357E+000	-8.5336536E-001	-8.5347569E-001	-1.428363554277293E+000	1.2190735E-003
2	1	0	0	1.566999960414250E+000	-8.4836280E-001	-8.4844637E-001	-1.384880545302463E+000	1.1749968E-003
2	1	0	1	1.617099959148618E+000	-8.4335369E-001	-8.4345043E-001	-1.341216803063309E+000	1.1312499E-003
2	1	0	1	1.667199957882985E+000	-8.3834440E-001	-8.3843160E-001	-1.296810527025416E+000	1.0872870E-003
2	1	0	1	1.717199956619879E+000	-8.3334178E-001	-8.3344507E-001	-1.253241670888115E+000	1.0445081E-003
2	1	0	0	1.767299955354247E+000	-8.2833451E-001	-8.2845241E-001	-1.208827025825138E+000	1.0014557E-003
2	1	0	0	1.817399954088614E+000	-8.2332391E-001	-8.2343066E-001	-1.165213140487825E+000	9.5947221E-004
2	1	0	0	1.867399952825508E+000	-8.1832194E-001	-8.1842095E-001	-1.121745488468994E+000	9.1806002E-004
2	1	0	0	1.917399951562402E+000	-8.1332541E-001	-8.1342232E-001	-1.078521008951244E+000	8.7729306E-004
2	1	0	1	1.967599950294243E+000	-8.0830294E-001	-8.0840635E-001	-1.035648595471287E+000	8.3722488E-004
2	1	0	1	2.017599949031137E+000	-8.0330336E-001	-8.0338228E-001	-9.929427198958400E-001	7.9771259E-004
2	1	0	1	2.067599947768031E+000	-7.9830408E-001	-7.9841155E-001	-9.510769462012512E-001	7.5935083E-004
2	1	0	0	2.117799946499872E+000	-7.9328209E-001	-7.9338294E-001	-9.098247527132184E-001	7.2183943E-004
2	1	0	0	2.167799945236766E+000	-7.8828454E-001	-7.8835988E-001	-8.691140352967319E-001	6.8517466E-004
2	1	0	0	2.217799943973660E+000	-7.8328341E-001	-7.8336787E-001	-8.288122402545842E-001	6.4926490E-004
2	1	0	1	2.267899942708027E+000	-7.7827251E-001	-7.7835715E-001	-7.889306782986640E-001	6.1406981E-004
2	1	0	1	2.317999941442395E+000	-7.7326483E-001	-7.7333593E-001	-7.496964674588753E-001	5.7976722E-004
2	1	0	1	2.367999940179288E+000	-7.6826239E-001	-7.6835567E-001	-7.112813465693284E-001	5.4651703E-004
2	1	0	0	2.418099938913656E+000	-7.6325351E-001	-7.6333165E-001	-6.731934879401180E-001	5.1386992E-004
2	1	0	0	2.468199937648023E+000	-7.5824410E-001	-7.5832015E-001	-6.359050985380481E-001	4.8221965E-004
2	1	0	0	2.518199936384917E+000	-7.5324142E-001	-7.5331980E-001	-5.992146033597372E-001	4.5140024E-004
2	1	0	1	2.568299935119285E+000	-7.4823511E-001	-7.4831104E-001	-5.633220694891168E-001	4.2154011E-004
2	1	0	1	2.618399933853652E+000	-7.4322325E-001	-7.4329114E-001	-5.277213439702364E-001	3.9225060E-004
2	1	0	1	2.668399932590546E+000	-7.3822242E-001	-7.3829311E-001	-4.931019494929267E-001	3.6405376E-004
2	1	0	1	2.718399931327440E+000	-7.3322439E-001	-7.3328686E-001	-4.596781277043567E-001	3.3707594E-004
2	1	0	0	2.783799929675297E+000	-7.2668165E-001	-7.2671729E-001	-4.156220472506931E-001	3.0203973E-004
2	1	0	1	2.849199928023154E+000	-7.2014230E-001	-7.2017914E-001	-3.724522094182126E-001	2.6823231E-004
2	1	0	1	2.899199926760048E+000	-7.1514374E-001	-7.1518254E-001	-3.403545485512698E-001	2.4341563E-004
2	1	0	1	2.949199925496941E+000	-7.1014374E-001	-7.1018547E-001	-3.086681058292322E-001	2.1921161E-004
2	1	0	0	2.999399924228783E+000	-7.0512152E-001	-7.0514882E-001	-2.772870878158491E-001	1.9552866E-004
2	1	0	0	3.049399922965677E+000	-7.0012474E-001	-7.0016462E-001	-2.465878691523751E-001	1.7265210E-004
2	1	0	0	3.099399921702570E+000	-6.9512272E-001	-6.9515610E-001	-2.163521142292129E-001	1.5039850E-004
2	1	0	1	3.149499920436938E+000	-6.9011223E-001	-6.9014853E-001	-1.866454173599907E-001	1.2881306E-004
2	1	0	1	3.199599919171305E+000	-6.8510467E-001	-6.8513983E-001	-1.575297628349697E-001	1.0792992E-004
2	1	0	1	3.249599917908199E+000	-6.8010217E-001	-6.8014085E-001	-1.286140967360180E-001	8.7475702E-005
2	1	0	0	3.299699916642567E+000	-6.7509371E-001	-6.7513329E-001	-1.005298830676005E-001	6.7871071E-005
2	1	0	0	3.349799915376934E+000	-6.7008340E-001	-6.7012751E-001	-7.261051847269251E-002	4.8658305E-005
2	1	0	0	3.399799914113828E+000	-6.6508114E-001	-6.6512644E-001	-4.520471063512430E-002	3.0066849E-005
2	1	0	1	3.449899912848196E+000	-6.6007477E-001	-6.6010177E-001	-1.822775216395646E-002	1.2032171E-005
2	1	0	1	3.499999911582563E+000	-6.5506268E-001	-6.5509748E-001	8.286668028295266E-003	5.4285756E-006
2	1	0	1	3.549999910319457E+000	-6.5006256E-001	-6.5011185E-001	3.403793913872466E-002	2.2128468E-005
2	1	0	1	3.599999909056351E+000	-6.4506418E-001	-6.4510900E-001	5.990395075654209E-002	3.8644579E-005
2	1	0	0	3.650199907788192E+000	-6.4004195E-001	-6.4008033E-001	8.521883942104236E-002	5.4546905E-005
2	1	0	0	3.700199906525086E+000	-6.3504368E-001	-6.3510120E-001	1.095949057375035E-001	6.9603855E-005
2	1	0	0	3.750199905261979E+000	-6.3004303E-001	-6.3010550E-001	1.336882529343824E-001	8.4237705E-005
2	1	0	1	3.800299903996347E+000	-6.2503088E-001	-6.2509221E-001	1.578646033442499E-001	9.8679935E-005
2	1	0	1	3.850399902730715E+000	-6.2002486E-001	-6.2009430E-001	1.812275211766198E-001	1.1237815E-004
2	1	0	1	3.900399901467608E+000	-6.1502242E-001	-6.1509120E-001	2.035925072224013E-001	1.2522796E-004
2	1	0	0	3.950499900201976E+000	-6.1001265E-001	-6.1008394E-001	2.258661689627039E-001	1.3779732E-004
2	1	0	0	4.000599898936343E+000	-6.0500401E-001	-6.0506684E-001	2.485174487705004E-001	1.5036967E-004
2	1	0	0	4.050599897673237E+000	-6.0000151E-001	-6.0006213E-001	2.704373528341111E-001	1.6227922E-004
2	1	0	1	4.100699896407605E+000	-5.9499347E-001	-5.9505743E-001	2.915072364821594E-001	1.7346354E-004
2	1	0	1	4.150799895141972E+000	-5.8998328E-001	-5.9003764E-001	3.126242240920334E-001	1.8446006E-004
2	1	0	1	4.200799893878866E+000	-5.8498120E-001	-5.8503193E-001	3.329980323155066E-001	1.9481448E-004
2	1	0	1	4.250799892615760E+000	-5.7998478E-001	-5.8004230E-001	3.527895789842337E-001	2.0463287E-004
2	1	0	0	4.300999891347601E+000	-5.7496250E-001	-5.7501662E-001	3.728371219774038E-001	2.1438755E-004
2	1	0	0	4.350999890084495E+000	-5.6996262E-001	-5.7002848E-001	3.921559820193021E-001	2.2354008E-004
2	1	0	0	4.400999888821389E+000	-5.6496352E-001	-5.6502199E-001	4.111170685447716E-001	2.3229019E-004
2	1	0	1	4.451199887553230E+000	-5.5994129E-001	-5.6000668E-001	4.303862769394633E-001	2.4101920E-004
2	1	0	1	4.501199886290124E+000	-5.5494398E-001	-5.5501491E-001	4.484298173033090E-001	2.4888525E-004
2	1	0	1	4.551199885027017E+000	-5.4994309E-001	-5.5000907E-001	4.660182289459402E-001	2.5631426E-004
2	1	0	0	4.601299883761385E+000	-5.4493171E-001	-5.4499155E-001	4.830379944804388E-001	2.6325163E-004
2	1	0	0	4.651399882495753E+000	-5.3992462E-001	-5.3998262E-001	4.998909090295207E-001	2.6993241E-004
2	1	0	0	4.701399881232646E+000	-5.3492194E-001	-5.3497833E-001	5.166580802581215E-001	2.7640088E-004
2	1	0	1	4.751499879967014E+000	-5.2991241E-001	-5.2995425E-001	5.331029292219969E-001	2.8252017E-004
2	1	0	1	4.801599878701381E+000	-5.2490383E-001	-5.2495670E-001	5.496041806626375E-001	2.8851841E-004
2	1	0	1	4.851599877438275E+000	-5.1990128E-001	-5.1997101E-001	5.637135334018453E-001	2.9311469E-004
2	1	0	0	4.901699876172643E+000	-5.1489419E-001	-5.1495934E-001	5.785474809841620E-001	2.9792843E-004
2	1	0	0	4.951799874907010E+000	-5.0988299E-001	-5.0993770E-001	5.935288047213443E-001	3.0266272E-004
2	1	0	0	5.001799873643904E+000	-5.0488144E-001	-5.0493330E-001	6.082470981001813E-001	3.0712422E-004
2	1	0	0	5.051799872380798E+000	-4.9988404E-001	-4.9994066E-001	6.226656309367282E-001	3.1129588E-004
2	1	0	1	5.101999871112639E+000	-4.9486196E-001	-4.9491739E-001	6.373057469931673E-001	3.1541369E-004
2	1	0	1	5.151999869849533E+000	-4.8986265E-001	-4.8991680E-001	6.504827188853746E-001	3.1868240E-004
2	1	0	1	5.201999868586427E+000	-4.8486358E-001	-4.8492643E-001	6.638499768860981E-001	3.2191840E-004
2	1	0	0	5.252199867318268E+000	-4.7984138E-001	-4.7988385E-001	6.770836466166763E-001	3.2492151E-004
2	1	0	0	5.302199866055162E+000	-4.7484410E-001	-4.7488013E-001	6.904119433915383E-001	3.2786292E-004
2	1	0	0	5.352199864792055E+000	-4.6984243E-001	-4.6986404E-001	7.028605385122786E-001	3.3024891E-004
2	1	0	1	5.402299863526423E+000	-4.6483147E-001	-4.6486205E-001	7.142299593419494E-001	3.3201839E-004
2	1	0	1	5.452399862260791E+000	-4.5982420E-001	-4.5985982E-001	7.256027438467629E-001	3.3367553E-004
2	1	0	1	5.502399860997684E+000	-4.5482174E-001	-4.5486003E-001	7.369715986173890E-001	3.3521894E-004
2	1	0	0	5.552499859732052E+000	-4.4981313E-001	-4.4983488E-001	7.482026565698128E-001	3.3656767E-004
2	1	0	0	5.602599858466419E+000	-4.4480345E-001	-4.4483751E-001	7.584449410941261E-001	3.3738476E-004
2	1	0	0	5.652599857203313E+000	-4.3980098E-001	-4.3983757E-001	7.684708792220083E-001	3.3800237E-004
2	1	0	1	5.702699855937681E+000	-4.3479398E-001	-4.3481618E-001	7.782554350226008E-001	3.3839807E-004
2	1	0	1	5.752799854672048E+000	-4.2978269E-001	-4.2980629E-001	7.870443157578944E-001	3.3827659E-004
2	1	0	1	5.802799853408942E+000	-4.2478150E-001	-4.2482451E-001	7.956192126110935E-001	3.3799853E-004
2	1	0	1	5.852799852145836E+000	-4.1978419E-001	-4.1982305E-001	8.048255174178038E-001	3.3788430E-004
2	1	0	0	5.902999850877677E+000	-4.1476160E-001	-4.1479027E-001	8.142089042474776E-001	3.3772594E-004
2	1	0	0	5.952999849614571E+000	-4.0976286E-001	-4.0979481E-001	8.220913264674135E-001	3.3688877E-004
2	1	0	0	6.002999848351465E+000	-4.0476295E-001	-4.0479517E-001	8.298338184374918E-001	3.3591271E-004
2	1	0	1	6.053199847083306E+000	-3.9974082E-001	-3.9978638E-001	8.390538189732437E-001	3.3544228E-004
2	1	0	1	6.103199845820200E+000	-3.9474404E-001	-3.9477542E-001	8.472641285969633E-001	3.3447906E-004
2	1	0	1	6.153199844557093E+000	-3.8974231E-001	-3.8977903E-001	8.548414713089240E-001	3.3319928E-004
2	1	0	0	6.203299843291461E+000	-3.8473189E-001	-3.8476679E-001	8.615657869741060E-001	3.3150191E-004
2	1	0	0	6.253399842025829E+000	-3.7972373E-001	-3.7976980E-001	8.687308638504483E-001	3.2991776E-004
2	1	0	0	6.303399840762722E+000	-3.7472147E-001	-3.7474936E-001	8.763245609933250E-001	3.2840206E-004
2	1	0	1	6.353499839497090E+000	-3.6971298E-001	-3.6974782E-001	8.832148291423931E-001	3.2656675E-004
2	1	0	1	6.403599838231457E+000	-3.6470291E-001	-3.6474252E-001	8.902187629603624E-001	3.2470064E-004
2	1	0	1	6.453599836968351E+000	-3.5970035E-001	-3.5974413E-001	8.975974654563643E-001	3.2290543E-004
2	1	0	0	6.503699835702719E+000	-3.5469452E-001	-3.5473135E-001	9.043061797247716E-001	3.2078577E-004
2	1	0	0	6.553799834437086E+000	-3.4968203E-001	-3.4972540E-001	9.104180704481344E-001	3.1839631E-004
2	1	0	0	6.603799833173980E+000	-3.4468180E-001	-3.4470406E-001	9.165347665642312E-001	3.1593326E-004
2	1	0	0	6.653799831910874E+000	-3.3968353E-001	-3.3970219E-001	9.223681852301127E-001	3.1333050E-004
2	1	0	1	6.703999830642715E+000	-3.3466133E-001	-3.3467856E-001	9.283879984612277E-001	3.1071156E-004
2	1	0	1	6.753999829379609E+000	-3.2966292E-001	-3.2968861E-001	9.347154933011801E-001	3.0816506E-004
2	1	0	1	6.803999828116503E+000	-3.2466286E-001	-3.2469016E-001	9.388470466336969E-001	3.0483439E-004
2	1	0	0	6.854099826850870E+000	-3.1965071E-001	-3.1970775E-001	9.442019719032366E-001	3.0186868E-004
2	1	0	0	6.904199825585238E+000	-3.1464401E-001	-3.1468955E-001	9.509293711362563E-001	2.9924753E-004
2	1	0	0	6.954199824322131E+000	-3.0964166E-001	-3.0968517E-001	9.559994650415113E-001	2.9605886E-004
2	1	0	1	7.004299823056499E+000	-3.0463192E-001	-3.0468395E-001	9.603806419104046E-001	2.9261256E-004
2	1	0	1	7.054399821790867E+000	-2.9962322E-001	-2.9966518E-001	9.631756857048419E-001	2.8863022E-004
2	1	0	1	7.104399820527760E+000	-2.9462087E-001	-2.9466206E-001	9.672356896698462E-001	2.8500767E-004
2	1	0	0	7.154499819262128E+000	-2.8961325E-001	-2.8964216E-001	9.714082821383130E-001	2.8136079E-004
2	1	0	0	7.204599817996495E+000	-2.8460240E-001	-2.8464180E-001	9.757863304744381E-001	2.7774958E-004
2	1	0	0	7.254599816733389E+000	-2.7960080E-001	-2.7963546E-001	9.801710009620717E-001	2.7409056E-004
2	1	0	0	7.304599815470283E+000	-2.7460414E-001	-2.7462864E-001	9.834443440307989E-001	2.7008198E-004
2	1	0	1	7.354799814202124E+000	-2.6958165E-001	-2.6960912E-001	9.867049022690466E-001	2.6602464E-004
2	1	0	1	7.404799812939018E+000	-2.6458177E-001	-2.6462460E-001	9.888187977861023E-001	2.6166579E-004
2	1	0	1	7.454799811675912E+000	-2.5958329E-001	-2.5961044E-001	9.922657901548355E-001	2.5760257E-004
2	1	0	0	7.504999810407753E+000	-2.5456074E-001	-2.5459424E-001	9.952992538171266E-001	2.5339745E-004
2	1	0	0	7.554999809144647E+000	-2.4956328E-001	-2.4959370E-001	9.993053862464709E-001	2.4942032E-004
2	1	0	0	7.604999807881541E+000	-2.4456227E-001	-2.4462608E-001	1.002822899279996E+000	2.4531662E-004
2	1	0	1	7.655099806615908E+000	-2.3955086E-001	-2.3961531E-001	1.005176808947772E+000	2.4085575E-004
2	1	0	1	7.705199805350276E+000	-2.3454383E-001	-2.3461039E-001	1.007336235430264E+000	2.3633156E-004
2	1	0	1	7.755199804087169E+000	-2.2954163E-001	-2.2960697E-001	1.010664255544196E+000	2.3205556E-004
2	1	0	0	7.805299802821537E+000	-2.2453217E-001	-2.2458699E-001	1.013461706091886E+000	2.2761032E-004
2	1	0	0	7.855399801555905E+000	-2.1952292E-001	-2.1957511E-001	1.015043148724627E+000	2.2287821E-004
2	1	0	0	7.905399800292798E+000	-2.1452071E-001	-2.1457726E-001	1.015534141937772E+000	2.1791054E-004
2	1	0	1	7.955499799027166E+000	-2.0951350E-001	-2.0957009E-001	1.018143651409682E+000	2.1337246E-004
2	1	0	1	8.020799797377549E+000	-2.0298071E-001	-2.0305632E-001	1.025987983581368E+000	2.0833334E-004
2	1	0	0	8.086199795725406E+000	-1.9644223E-001	-1.9654027E-001	1.028811689165201E+000	2.0220292E-004
2	1	0	0	8.136199794462300E+000	-1.9144076E-001	-1.9154029E-001	1.032397657240413E+000	1.9774574E-004
2	1	0	0	8.186199793199194E+000	-1.8644367E-001	-1.8654913E-001	1.034567740739593E+000	1.9299772E-004
2	1	0	1	8.236399791931035E+000	-1.8142129E-001	-1.8153334E-001	1.037426924580529E+000	1.8832757E-004
2	1	0	1	8.286399790667929E+000	-1.7642212E-001	-1.7651053E-001	1.039510519312323E+000	1.8348455E-004
2	1	0	1	8.336399789404823E+000	-1.7142265E-001	-1.7151165E-001	1.042674304019322E+000	1.7883079E-004
2	1	0	0	8.386599788136664E+000	-1.6640051E-001	-1.6648592E-001	1.043876525114171E+000	1.7379074E-004
2	1	0	0	8.436599786873558E+000	-1.6140337E-001	-1.6148774E-001	1.045637988648144E+000	1.6885772E-004
2	1	0	0	8.486599785610451E+000	-1.5640187E-001	-1.5648666E-001	1.045628771504156E+000	1.6362696E-004
2	1	0	1	8.536699784344819E+000	-1.5139097E-001	-1.5147609E-001	1.048118853104825E+000	1.5876495E-004
2	1	0	1	8.586799783079186E+000	-1.4638358E-001	-1.4646417E-001	1.049877377282986E+000	1.5376942E-004
2	1	0	1	8.636799781816080E+000	-1.4138097E-001	-1.4145657E-001	1.051629921284048E+000	1.4875997E-004
2	1	0	0	8.686899780550448E+000	-1.3637215E-001	-1.3642357E-001	1.054120741628733E+000	1.4380692E-004
2	1	0	0	8.736999779284815E+000	-1.3136272E-001	-1.3140652E-001	1.056122275669914E+000	1.3878135E-004
2	1	0	0	8.786999778021709E+000	-1.2636024E-001	-1.2642202E-001	1.057866482414955E+000	1.3373762E-004
2	1	0	1	8.837099776756077E+000	-1.2135350E-001	-1.2141824E-001	1.059827906063257E+000	1.2868244E-004
2	1	0	1	8.887199775490444E+000	-1.1634183E-001	-1.1639223E-001	1.060910324546990E+000	1.2348172E-004
2	1	0	1	8.937199774227338E+000	-1.1134084E-001	-1.1140577E-001	1.062251448964590E+000	1.1834095E-004
2	1	0	1	8.987199772964232E+000	-1.0634317E-001	-1.0640299E-001	1.063699122735817E+000	1.1318077E-004
2	1	0	0	9.037399771696073E+000	-1.0132100E-001	-1.0137179E-001	1.065709621825469E+000	1.0803289E-004
2	1	0	0	9.087399770432967E+000	-9.6322194E-002	-9.6384183E-002	1.066231279649923E+000	1.0276783E-004
2	1	0	0	9.137399769169861E+000	-9.1322474E-002	-9.1385178E-002	1.066952958125672E+000	9.7503689E-005
2	1	0	1	9.187599767901702E+000	-8.6300045E-002	-8.6372599E-002	1.069327201496481E+000	9.2360569E-005
2	1	0	1	9.237599766638596E+000	-8.1303470E-002	-8.1366479E-002	1.069568889900010E+000	8.7027052E-005
2	1	0	1	9.287599765375489E+000	-7.6301523E-002	-7.6368667E-002	1.071000339143224E+000	8.1790866E-005
2	1	0	0	9.337699764109857E+000	-7.1291000E-002	-7.1355760E-002	1.071988351152300E+000	7.6492543E-005
2	1	0	0	9.387799762844224E+000	-6.6282965E-002	-6.6347227E-002	1.072673590687039E+000	7.1168921E-005
2	1	0	0	9.437799761581118E+000	-6.1280791E-002	-6.1348226E-002	1.073905600374765E+000	6.5882203E-005
2	1	0	1	9.487899760315486E+000	-5.6272302E-002	-5.6333836E-002	1.075784695089677E+000	6.0603077E-005
2	1	0	1	9.537999759049853E+000	-5.1262252E-002	-5.1341519E-002	1.076854705283248E+000	5.5287357E-005
2	1	0	1	9.587999757786747E+000	-4.6259847E-002	-4.6338696E-002	1.077295196312444E+000	4.9920454E-005
2	1	0	0	9.638099756521115E+000	-4.1253589E-002	-4.1319944E-002	1.079394821133844E+000	4.4600532E-005
2	1	0	0	9.688199755255482E+000	-3.6241505E-002	-3.6305644E-002	1.081707585364869E+000	3.9272090E-005
2	1	0	0	9.738199753992376E+000	-3.1241117E-002	-3.1314127E-002	1.083261831138763E+000	3.3921398E-005
2	1	0	0	9.788199752729270E+000	-2.6242947E-002	-2.6305651E-002	1.084395554431513E+000	2.8525732E-005
2	1	0	1	9.838399751461111E+000	-2.1220565E-002	-2.1284603E-002	1.085539680730099E+000	2.3105280E-005
2	1	0	1	9.888399750198005E+000	-1.6222397E-002	-1.6278733E-002	1.086080910115378E+000	1.7680020E-005
2	1	0	1	9.938399748934899E+000	-1.1222010E-002	-1.1310553E-002	1.087665455080383E+000	1.2302098E-005
2	1	0	0	9.988499747669266E+000	-6.2099160E-003	-6.2929238E-003	1.090047978863639E+000	6.8595887E-006
2	1	0	0	1.003859974640363E+001	-1.2034749E-003	-1.2762839E-003	1.091981421344974E+000	1.3936783E-006
2	1	0	0	1.008859974514053E+001	3.7987153E-003	3.7285741E-003	1.092882786414318E+000	4.0748946E-006
2	1	0	1	1.013869974387489E+001	8.8087693E-003	8.7264664E-003	1.093298542775500E+000	9.5406331E-006
2	1	0	1	1.018879974260926E+001	1.3817207E-002	1.3742283E-002	1.093380479076050E+000	1.5025544E-005
2	1	0	1	1.023879974134616E+001	1.8819593E-002	1.8749868E-002	1.094049093667161E+000	2.0513276E-005
2	1	0	0	1.028889974008052E+001	2.3827426E-002	2.3761515E-002	1.095559713229929E+000	2.6032158E-005
2	1	0	0	1.033899973881489E+001	2.8838092E-002	2.8756404E-002	1.095740698316455E+000	3.1509564E-005
2	1	0	0	1.038899973755179E+001	3.3839863E-002	3.3767141E-002	1.095459678689762E+000	3.6990543E-005
2	1	0	0	1.043899973628868E+001	3.8836386E-002	3.8769074E-002	1.096601986025558E+000	4.2514243E-005
2	1	0	1	1.048919973502052E+001	4.3858767E-002	4.3771461E-002	1.097731683741241E+000	4.8049318E-005
2	1	0	1	1.053919973375741E+001	4.8858520E-002	4.8772264E-002	1.098870508370617E+000	5.3594402E-005
2	1	0	1	1.058919973249431E+001	5.3857282E-002	5.3778451E-002	1.100942637915963E+000	5.9206988E-005
2	1	0	0	1.063939973122615E+001	5.8879606E-002	5.8817182E-002	1.101425074225551E+000	6.4782718E-005
2	1	0	0	1.068939972996304E+001	6.3877136E-002	6.3807897E-002	1.101213471963085E+000	7.0266113E-005
2	1	0	0	1.073939972869994E+001	6.8877943E-002	6.8797998E-002	1.100048988970254E+000	7.5681171E-005
2	1	0	1	1.078949972743430E+001	7.3889554E-002	7.3818803E-002	1.101994016516644E+000	8.1347876E-005
2	1	0	1	1.083959972616867E+001	7.8896627E-002	7.8846566E-002	1.101637446792544E+000	8.6860331E-005
2	1	0	1	1.088959972490557E+001	8.3898813E-002	8.3844163E-002	1.102034718480791E+000	9.2399176E-005
2	1	0	0	1.093969972363993E+001	8.8908210E-002	8.8832080E-002	1.102636843606192E+000	9.7949523E-005
2	1	0	0	1.098979972237430E+001	9.3917340E-002	9.3853131E-002	1.103272315808558E+000	1.0354556E-004
2	1	0	0	1.103249972129561E+001	9.8189838E-002	9.8139994E-002	1.105744911405228E+000	1.0851780E-004
2	1	0	0	1.105059972083836E+001	9.9997252E-002	9.9955998E-002	1.109994769096375E+000	1.1095063E-004