EC-Lab ASCII FILE
Nb header lines : 55                          

I-V Characterization

Run on channel : 1 (SN 6514)
User : 
CE vs. WE compliance from -10 V to 10 V
Electrode connection : standard
Ewe ctrl range : min = -1.10 V, max = 0.20 V
Safety Limits :
	Do not start on E overload
Acquisition started on : 06/15/2016 17:33:54
Saved on :
	File : B125-G54-UN-G-D1GB-C1 BW 100mVs_01_IVC_C01.mpr
	Directory : E:\EC-Lab measurements\B125-G54-UN-G-D1GB\
	Host : 10.0.2.15
Device : VSP (SN 0295)
Address : USB
EC-Lab for windows v11.01 (software)
Internet server v11.00 (firmware)
Command interpretor v11.00 (firmware)
Electrode material : 
Initial state : 
Electrolyte : 
Comments : 
Electrode surface area : 0.001 cm²
Characteristic mass : 0.001 g
Equivalent Weight : 0.000 g/eq.
Density : 0.000 g/cm3
tR (h:m:s)          0:00:0.0000         
dER/dt (mV/h)       0.0                 
dER (mV)            0                   
dtR (s)             0.0000              
dE/dt               100.000             
dE/dt unit          mV/s                
Ei (V)              -1.000              
vs.                 Ref                 
EL (V)              0.100               
vs.                 Ref                 
record              <I>                 
dI                  0.000               
unit dI             µA                  
tI (s)              0.1000              
step percent        100                 
N                   100                 
E range min (V)     -1.100              
E range max (V)     0.200               
I Range             Auto                
I Range min         Unset               
I Range max         Unset               
I Range init        Unset               
Bandwidth           5                   

mode	ox/red	error	control changes	time/s	control/V	Ewe/V	<I>/mA	P/W
2	1	0	1	1.399999964633025E-001	-9.9104071E-001	-9.9121529E-001	-1.363899171352386E+000	1.3519177E-003
2	1	0	0	1.652999958241708E-001	-9.8851484E-001	-9.8864746E-001	-1.373960862058122E+000	1.3583630E-003
2	1	0	0	2.153999945585383E-001	-9.8350495E-001	-9.8364425E-001	-1.372894582170865E+000	1.3504399E-003
2	1	0	0	2.653999932954321E-001	-9.7850269E-001	-9.7863495E-001	-1.370447664633023E+000	1.3411680E-003
2	1	0	1	3.154999920297996E-001	-9.7349548E-001	-9.7362101E-001	-1.366826803192808E+000	1.3307713E-003
2	1	0	1	3.655999907641672E-001	-9.6848428E-001	-9.6861488E-001	-1.363203458478576E+000	1.3204191E-003
2	1	0	1	4.155999895010609E-001	-9.6348292E-001	-9.6361488E-001	-1.354738744229227E+000	1.3054464E-003
2	1	0	1	4.655999882379547E-001	-9.5848632E-001	-9.5858711E-001	-1.345238720541268E+000	1.2895284E-003
2	1	0	0	5.157999869697960E-001	-9.5346373E-001	-9.5357126E-001	-1.334630161148896E+000	1.2726650E-003
2	1	0	0	5.657999857066898E-001	-9.4846433E-001	-9.4859129E-001	-1.320432272566944E+000	1.2525505E-003
2	1	0	0	6.157999844435835E-001	-9.4346523E-001	-9.4360125E-001	-1.303891560182294E+000	1.2303537E-003
2	1	0	1	6.659999831754249E-001	-9.3844306E-001	-9.3856579E-001	-1.285064364427315E+000	1.2061174E-003
2	1	0	1	7.159999819123186E-001	-9.3344498E-001	-9.3359184E-001	-1.264739019851312E+000	1.1807501E-003
2	1	0	1	7.659999806492124E-001	-9.2844468E-001	-9.2858070E-001	-1.241488661848276E+000	1.1528224E-003
2	1	0	0	8.160999793835799E-001	-9.2343235E-001	-9.2356521E-001	-1.215401791842702E+000	1.1225028E-003
2	1	0	0	8.661999781179475E-001	-9.1842639E-001	-9.1855490E-001	-1.188245201944939E+000	1.0914685E-003
2	1	0	0	9.161999768548412E-001	-9.1342396E-001	-9.1355395E-001	-1.158880624613420E+000	1.0587000E-003
2	1	0	1	9.662999755892088E-001	-9.0841395E-001	-9.0854931E-001	-1.126460766061847E+000	1.0234452E-003
2	1	0	1	1.016399974323576E+000	-9.0340543E-001	-9.0352786E-001	-1.093241902963571E+000	9.8777446E-004
2	1	0	1	1.066399973060470E+000	-8.9840299E-001	-8.9852041E-001	-1.058668243086642E+000	9.5123501E-004
2	1	0	0	1.116499971794838E+000	-8.9339453E-001	-8.9352500E-001	-1.024192934899160E+000	9.1514201E-004
2	1	0	0	1.166599970529205E+000	-8.8838470E-001	-8.8850856E-001	-9.870741093682689E-001	8.7702379E-004
2	1	0	0	1.216599969266099E+000	-8.8338220E-001	-8.8350326E-001	-9.503314613160416E-001	8.3962095E-004
2	1	0	1	1.266699968000466E+000	-8.7837613E-001	-8.7849104E-001	-9.127464546264434E-001	8.0183957E-004
2	1	0	1	1.316799966734834E+000	-8.7336403E-001	-8.7350553E-001	-8.751482241912090E-001	7.6444680E-004
2	1	0	1	1.366799965471728E+000	-8.6836338E-001	-8.6850291E-001	-8.382025127613826E-001	7.2798133E-004
2	1	0	1	1.416799964208622E+000	-8.6336559E-001	-8.6349410E-001	-8.008074809403256E-001	6.9149252E-004
2	1	0	0	1.466999962940463E+000	-8.5834330E-001	-8.5847074E-001	-7.633188938085402E-001	6.5528695E-004
2	1	0	0	1.516999961677357E+000	-8.5334396E-001	-8.5347873E-001	-7.264498486114455E-001	6.2000949E-004
2	1	0	0	1.566999960414250E+000	-8.4834504E-001	-8.4848052E-001	-6.894459901859360E-001	5.8498152E-004
2	1	0	1	1.617199959146092E+000	-8.4332234E-001	-8.4345305E-001	-6.531950570473839E-001	5.5093935E-004
2	1	0	1	1.667199957882985E+000	-8.3832550E-001	-8.3845347E-001	-6.173935718058203E-001	5.1765580E-004
2	1	0	1	1.717199956619879E+000	-8.3332419E-001	-8.3346760E-001	-5.819932818370415E-001	4.8507255E-004
2	1	0	0	1.767299955354247E+000	-8.2831287E-001	-8.2845831E-001	-5.473438435705060E-001	4.5345156E-004
2	1	0	0	1.817399954088614E+000	-8.2330573E-001	-8.2344311E-001	-5.132340962160740E-001	4.2261908E-004
2	1	0	0	1.867399952825508E+000	-8.1830335E-001	-8.1843102E-001	-4.797681774214801E-001	3.9265715E-004
2	1	0	1	1.917499951559876E+000	-8.1329352E-001	-8.1342930E-001	-4.470395314340241E-001	3.6363504E-004
2	1	0	1	1.982799949910259E+000	-8.0676371E-001	-8.0686623E-001	-4.044743626391973E-001	3.2635671E-004
2	1	0	0	2.048199948258116E+000	-8.0022538E-001	-8.0029953E-001	-3.630840445240211E-001	2.9057599E-004
2	1	0	0	2.098199946995010E+000	-7.9522282E-001	-7.9529774E-001	-3.320790825753339E-001	2.6410175E-004
2	1	0	1	2.148299945729377E+000	-7.9021478E-001	-7.9028797E-001	-3.016393176762530E-001	2.3838192E-004
2	1	0	1	2.198399944463745E+000	-7.8520453E-001	-7.8526545E-001	-2.719404141436446E-001	2.1354541E-004
2	1	0	1	2.248399943200639E+000	-7.8020215E-001	-7.8027922E-001	-2.429067556990687E-001	1.8953509E-004
2	1	0	0	2.298499941935006E+000	-7.7519542E-001	-7.7526903E-001	-2.143980447833980E-001	1.6621617E-004
2	1	0	0	2.348599940669374E+000	-7.7018380E-001	-7.7026510E-001	-1.862249515005708E-001	1.4344258E-004
2	1	0	0	2.398599939406267E+000	-7.6518267E-001	-7.6524222E-001	-1.587252418029204E-001	1.2146326E-004
2	1	0	0	2.448599938143161E+000	-7.6018548E-001	-7.6025665E-001	-1.317949191405750E-001	1.0019796E-004
2	1	0	1	2.498799936875002E+000	-7.5516289E-001	-7.5521511E-001	-1.050893692165129E-001	7.9365076E-005
2	1	0	1	2.548799935611896E+000	-7.5016427E-001	-7.5021690E-001	-7.914298042835652E-002	5.9374401E-005
2	1	0	1	2.598799934348790E+000	-7.4516475E-001	-7.4520713E-001	-5.366160717772030E-002	3.9989012E-005
2	1	0	0	2.648999933080631E+000	-7.4014246E-001	-7.4018425E-001	-2.853177539703561E-002	2.1118771E-005
2	1	0	0	2.698999931817525E+000	-7.3514503E-001	-7.3519361E-001	-4.017650656257612E-003	2.9537512E-006
2	1	0	0	2.748999930554419E+000	-7.3014390E-001	-7.3020250E-001	2.014754721361703E-002	1.4711789E-005
2	1	0	1	2.814199928907328E+000	-7.2362417E-001	-7.2365576E-001	5.091154588987064E-002	3.6842433E-005
2	1	0	1	2.879199927265290E+000	-7.1712214E-001	-7.1716976E-001	8.077461358524307E-002	5.7929112E-005
2	1	0	1	2.944499925615673E+000	-7.1059161E-001	-7.1066451E-001	1.098814335326701E-001	7.8088837E-005
2	1	0	0	3.009799923966057E+000	-7.0406550E-001	-7.0411348E-001	1.392868172242558E-001	9.8073724E-005
2	1	0	1	3.059999922697898E+000	-6.9904327E-001	-6.9910878E-001	1.610580028075614E-001	1.1259707E-004
2	1	0	1	3.109999921434792E+000	-6.9404322E-001	-6.9409597E-001	1.823937559304145E-001	1.2659877E-004
2	1	0	1	3.159999920171686E+000	-6.8904459E-001	-6.8910629E-001	2.033728424628540E-001	1.4014551E-004
2	1	0	0	3.210199918903527E+000	-6.8402249E-001	-6.8407351E-001	2.240990270888390E-001	1.5330021E-004
2	1	0	0	3.260199917640421E+000	-6.7902422E-001	-6.7908663E-001	2.445897847179048E-001	1.6609766E-004
2	1	0	0	3.310199916377314E+000	-6.7402446E-001	-6.7409271E-001	2.644119040576030E-001	1.7823814E-004
2	1	0	1	3.360399915109156E+000	-6.6900218E-001	-6.6906971E-001	2.836695088719754E-001	1.8979468E-004
2	1	0	1	3.410399913846049E+000	-6.6400516E-001	-6.6406310E-001	3.029256079412335E-001	2.0116172E-004
2	1	0	1	3.460399912582943E+000	-6.5900344E-001	-6.5906429E-001	3.216977033760111E-001	2.1201947E-004
2	1	0	0	3.510499911317311E+000	-6.5399259E-001	-6.5405750E-001	3.397079538213115E-001	2.2218854E-004
2	1	0	0	3.560599910051678E+000	-6.4898473E-001	-6.4905977E-001	3.575097344462477E-001	2.3204519E-004
2	1	0	0	3.610599908788572E+000	-6.4398271E-001	-6.4405072E-001	3.756246509927741E-001	2.4192133E-004
2	1	0	1	3.660699907522940E+000	-6.3897347E-001	-6.3905597E-001	3.931524923147345E-001	2.5124644E-004
2	1	0	1	3.710799906257307E+000	-6.3396448E-001	-6.3405204E-001	4.103706033644787E-001	2.6019631E-004
2	1	0	1	3.760799904994201E+000	-6.2896228E-001	-6.2906140E-001	4.265647655658480E-001	2.6833543E-004
2	1	0	0	3.810899903728568E+000	-6.2395459E-001	-6.2405556E-001	4.429616787267996E-001	2.7643269E-004
2	1	0	0	3.860999902462936E+000	-6.1894369E-001	-6.1903816E-001	4.587580394376944E-001	2.8398875E-004
2	1	0	0	3.910999901199830E+000	-6.1394203E-001	-6.1403275E-001	4.742660854496605E-001	2.9121491E-004
2	1	0	0	3.960999899936724E+000	-6.0894489E-001	-6.0903209E-001	4.885668366836429E-001	2.9755288E-004
2	1	0	1	4.011199898668565E+000	-6.0392296E-001	-6.0400850E-001	5.037222931864758E-001	3.0425255E-004
2	1	0	1	4.061199897405459E+000	-5.9892285E-001	-5.9900647E-001	5.192645631604833E-001	3.1104282E-004
2	1	0	1	4.111199896142352E+000	-5.9392482E-001	-5.9400213E-001	5.338803002545482E-001	3.1712605E-004
2	1	0	0	4.161399894874194E+000	-5.8890247E-001	-5.8897883E-001	5.482107541312464E-001	3.2288453E-004
2	1	0	0	4.211399893611087E+000	-5.8390415E-001	-5.8397883E-001	5.622974594741192E-001	3.2836982E-004
2	1	0	0	4.261399892347981E+000	-5.7890385E-001	-5.7898879E-001	5.757873069577368E-001	3.3337440E-004
2	1	0	1	4.311599891079823E+000	-5.7388157E-001	-5.7396346E-001	5.890403441591721E-001	3.3808764E-004
2	1	0	1	4.361599889816716E+000	-5.6888491E-001	-5.6897700E-001	6.020170874225244E-001	3.4253387E-004
2	1	0	1	4.411599888553610E+000	-5.6388324E-001	-5.6395793E-001	6.153360705288309E-001	3.4702366E-004
2	1	0	0	4.461699887287978E+000	-5.5887234E-001	-5.5897385E-001	6.280433489122941E-001	3.5105980E-004
2	1	0	0	4.511799886022345E+000	-5.5386508E-001	-5.5396706E-001	6.399841440941199E-001	3.5453014E-004
2	1	0	0	4.561799884759239E+000	-5.4886258E-001	-5.4894757E-001	6.522530085273957E-001	3.5805270E-004
2	1	0	1	4.611899883493606E+000	-5.4385376E-001	-5.4394788E-001	6.630186061946830E-001	3.6064757E-004
2	1	0	1	4.661999882227974E+000	-5.3884411E-001	-5.3892934E-001	6.743266707053532E-001	3.6341444E-004
2	1	0	1	4.711999880964868E+000	-5.3384173E-001	-5.3392488E-001	6.854771161376938E-001	3.6599330E-004
2	1	0	0	4.762099879699235E+000	-5.2883440E-001	-5.2891362E-001	6.970566881750884E-001	3.6868278E-004
2	1	0	0	4.812199878433603E+000	-5.2382338E-001	-5.2390695E-001	7.082767316105265E-001	3.7107110E-004
2	1	0	0	4.862199877170497E+000	-5.1882178E-001	-5.1891774E-001	7.178911209042127E-001	3.7252644E-004
2	1	0	0	4.912199875907390E+000	-5.1382530E-001	-5.1391971E-001	7.282418277927185E-001	3.7425783E-004
2	1	0	1	4.962399874639232E+000	-5.0880265E-001	-5.0888741E-001	7.377981823009883E-001	3.7545621E-004
2	1	0	1	5.012399873376125E+000	-5.0380331E-001	-5.0388509E-001	7.470875271537922E-001	3.7644626E-004
2	1	0	1	5.062399872113019E+000	-4.9880427E-001	-4.9889636E-001	7.559651484999677E-001	3.7714827E-004
2	1	0	0	5.112599870844861E+000	-4.9378189E-001	-4.9385890E-001	7.654295911351099E-001	3.7801423E-004
2	1	0	0	5.162599869581754E+000	-4.8878399E-001	-4.8886916E-001	7.741529016273105E-001	3.7845949E-004
2	1	0	0	5.212599868318648E+000	-4.8378351E-001	-4.8384893E-001	7.815896665398405E-001	3.7817133E-004
2	1	0	1	5.262699867053016E+000	-4.7877130E-001	-4.7883770E-001	7.897461978093538E-001	3.7816024E-004
2	1	0	1	5.312799865787383E+000	-4.7376537E-001	-4.7383615E-001	7.985307106276478E-001	3.7837273E-004
2	1	0	1	5.362799864524277E+000	-4.6876284E-001	-4.6882156E-001	8.060818022487659E-001	3.7790852E-004
2	1	0	0	5.412899863258644E+000	-4.6375287E-001	-4.6382001E-001	8.132409086229799E-001	3.7719740E-004
2	1	0	0	5.462999861993012E+000	-4.5874450E-001	-4.5880637E-001	8.203866419380019E-001	3.7639862E-004
2	1	0	0	5.512999860729906E+000	-4.5374200E-001	-4.5380750E-001	8.267755748060104E-001	3.7519695E-004
2	1	0	1	5.563099859464273E+000	-4.4873354E-001	-4.4879103E-001	8.336068080331831E-001	3.7411525E-004
2	1	0	1	5.613199858198641E+000	-4.4372383E-001	-4.4378760E-001	8.402314476195762E-001	3.7288430E-004
2	1	0	1	5.663199856935535E+000	-4.3872139E-001	-4.3878368E-001	8.466438912174539E-001	3.7149352E-004
2	1	0	0	5.713299855669902E+000	-4.3371484E-001	-4.3377098E-001	8.532830852589228E-001	3.7012945E-004
2	1	0	0	5.763399854404270E+000	-4.2870310E-001	-4.2876002E-001	8.594166798278255E-001	3.6848351E-004
2	1	0	0	5.813399853141163E+000	-4.2370227E-001	-4.2376739E-001	8.653344384195085E-001	3.6670052E-004
2	1	0	0	5.863399851878057E+000	-4.1870463E-001	-4.1876626E-001	8.710958363785178E-001	3.6478555E-004
2	1	0	1	5.913599850609899E+000	-4.1368225E-001	-4.1374567E-001	8.770484773373983E-001	3.6287500E-004
2	1	0	1	5.963599849346792E+000	-4.0868309E-001	-4.0874311E-001	8.833726397649855E-001	3.6107248E-004
2	1	0	1	6.013599848083686E+000	-4.0368390E-001	-4.0375164E-001	8.886945653867731E-001	3.5881190E-004
2	1	0	0	6.063799846815527E+000	-3.9866164E-001	-3.9874545E-001	8.937810614166417E-001	3.5639113E-004
2	1	0	0	6.113799845552421E+000	-3.9366427E-001	-3.9373276E-001	8.993618129333480E-001	3.5410820E-004
2	1	0	0	6.163799844289315E+000	-3.8866335E-001	-3.8872510E-001	9.052402367856232E-001	3.5188961E-004
2	1	0	1	6.213899843023682E+000	-3.8365170E-001	-3.8373047E-001	9.106460558527250E-001	3.4944265E-004
2	1	0	1	6.263999841758050E+000	-3.7864479E-001	-3.7870595E-001	9.152346547844594E-001	3.4660482E-004
2	1	0	1	6.313999840494944E+000	-3.7364262E-001	-3.7371236E-001	9.199921438474954E-001	3.4381243E-004
2	1	0	0	6.364099839229311E+000	-3.6863264E-001	-3.6871159E-001	9.236737097762546E-001	3.4056921E-004
2	1	0	0	6.414199837963679E+000	-3.6362404E-001	-3.6371037E-001	9.279327496935874E-001	3.3749876E-004
2	1	0	0	6.464199836700573E+000	-3.5862187E-001	-3.5870057E-001	9.321481338930866E-001	3.3436206E-004
2	1	0	1	6.514299835434940E+000	-3.5361353E-001	-3.5367760E-001	9.364515912999529E-001	3.3120194E-004
2	1	0	1	6.564399834169308E+000	-3.4860355E-001	-3.4867620E-001	9.413181824803125E-001	3.2821525E-004
2	1	0	1	6.614399832906201E+000	-3.4360123E-001	-3.4365311E-001	9.450911169781744E-001	3.2478350E-004
2	1	0	0	6.664499831640569E+000	-3.3859453E-001	-3.3865029E-001	9.489528043079662E-001	3.2136313E-004
2	1	0	0	6.714599830374937E+000	-3.3358273E-001	-3.3362234E-001	9.533222409961155E-001	3.1804960E-004
2	1	0	0	6.764599829111830E+000	-3.2858205E-001	-3.2863909E-001	9.560785541227794E-001	3.1420478E-004
2	1	0	0	6.814599827848724E+000	-3.2358411E-001	-3.2364312E-001	9.589423095830742E-001	3.1035507E-004
2	1	0	1	6.864799826580565E+000	-3.1856203E-001	-3.1864443E-001	9.622531825002643E-001	3.0661662E-004
2	1	0	1	6.914799825317459E+000	-3.1356287E-001	-3.1363475E-001	9.643181594722947E-001	3.0244369E-004
2	1	0	1	6.964799824054353E+000	-3.0856371E-001	-3.0863112E-001	9.674931702499028E-001	2.9859849E-004
2	1	0	0	7.014999822786194E+000	-3.0354139E-001	-3.0362111E-001	9.692361652644657E-001	2.9428056E-004
2	1	0	0	7.064999821523088E+000	-2.9854396E-001	-2.9861927E-001	9.721865732594122E-001	2.9031365E-004
2	1	0	0	7.114999820259982E+000	-2.9354292E-001	-2.9359823E-001	9.743761332894714E-001	2.8607511E-004
2	1	0	1	7.165099818994349E+000	-2.8853148E-001	-2.8860107E-001	9.763222962794653E-001	2.8176766E-004
2	1	0	1	7.215199817728717E+000	-2.8352433E-001	-2.8359672E-001	9.793979618063231E-001	2.7775406E-004
2	1	0	1	7.265199816465611E+000	-2.7852234E-001	-2.7859467E-001	9.816275546753026E-001	2.7347621E-004
2	1	0	0	7.315299815199978E+000	-2.7351236E-001	-2.7355525E-001	9.832665577204764E-001	2.6897772E-004
2	1	0	0	7.365399813934346E+000	-2.6850393E-001	-2.6857057E-001	9.837767078969470E-001	2.6421348E-004
2	1	0	0	7.415399812671239E+000	-2.6350173E-001	-2.6358128E-001	9.862468022194939E-001	2.5995620E-004
2	1	0	1	7.465499811405607E+000	-2.5849354E-001	-2.5857088E-001	9.896794235184334E-001	2.5590227E-004
2	1	0	1	7.515599810139975E+000	-2.5348321E-001	-2.5354254E-001	9.919861163474799E-001	2.5151068E-004
2	1	0	1	7.565599808876868E+000	-2.4848092E-001	-2.4854453E-001	9.952915735838310E-001	2.4737426E-004
2	1	0	0	7.615699807611236E+000	-2.4347444E-001	-2.4356756E-001	9.967360219069299E-001	2.4277256E-004
2	1	0	0	7.665799806345603E+000	-2.3846260E-001	-2.3855570E-001	9.972720012921448E-001	2.3790493E-004
2	1	0	0	7.715799805082497E+000	-2.3346186E-001	-2.3354343E-001	9.997452253454675E-001	2.3348392E-004
2	1	0	0	7.765799803819391E+000	-2.2846411E-001	-2.2854878E-001	1.001616018876241E+000	2.2891811E-004
2	1	0	1	7.815999802551232E+000	-2.2344188E-001	-2.2353113E-001	1.003920765927878E+000	2.2440754E-004
2	1	0	1	7.865999801288126E+000	-2.1844308E-001	-2.1853347E-001	1.006239737899445E+000	2.1989706E-004
2	1	0	1	7.915999800025020E+000	-2.1344343E-001	-2.1353936E-001	1.008496743238227E+000	2.1535375E-004
2	1	0	0	7.966199798756861E+000	-2.0842098E-001	-2.0850323E-001	1.011378682149971E+000	2.1087572E-004
2	1	0	0	8.016199797493755E+000	-2.0342398E-001	-2.0351964E-001	1.012685775912692E+000	2.0610145E-004
2	1	0	0	8.066199796230649E+000	-1.9842267E-001	-1.9852172E-001	1.013395915593104E+000	2.0118110E-004
2	1	0	1	8.116299794965016E+000	-1.9341134E-001	-1.9350404E-001	1.014623605843841E+000	1.9633376E-004
2	1	0	1	8.166399793699384E+000	-1.8840419E-001	-1.8848757E-001	1.016308661606631E+000	1.9156156E-004
2	1	0	1	8.216399792436277E+000	-1.8340199E-001	-1.8348993E-001	1.018508786157537E+000	1.8688611E-004
2	1	0	0	8.281599790789187E+000	-1.7688432E-001	-1.7696525E-001	1.023610398560034E+000	1.8114348E-004
2	1	0	0	8.346599789147149E+000	-1.7038225E-001	-1.7050830E-001	1.021802648007879E+000	1.7422583E-004
2	1	0	0	8.396599787884043E+000	-1.6538343E-001	-1.6549113E-001	1.022038355358950E+000	1.6913829E-004
2	1	0	1	8.446799786615884E+000	-1.6036130E-001	-1.6047592E-001	1.024701713307419E+000	1.6443996E-004
2	1	0	1	8.496799785352778E+000	-1.5536337E-001	-1.5547541E-001	1.027513290691322E+000	1.5975305E-004
2	1	0	1	8.546799784089671E+000	-1.5036300E-001	-1.5046383E-001	1.028677608260795E+000	1.5477878E-004
2	1	0	0	8.596899782824039E+000	-1.4535078E-001	-1.4545926E-001	1.028484619835623E+000	1.4960262E-004
2	1	0	0	8.646999781558407E+000	-1.4034447E-001	-1.4044161E-001	1.029384821390515E+000	1.4456846E-004
2	1	0	0	8.696999780295300E+000	-1.3534224E-001	-1.3544129E-001	1.030780228381865E+000	1.3961020E-004
2	1	0	1	8.747099779029668E+000	-1.3033170E-001	-1.3042177E-001	1.031421071653403E+000	1.3451977E-004
2	1	0	1	8.797199777764035E+000	-1.2532370E-001	-1.2541428E-001	1.033059799017270E+000	1.2956046E-004
2	1	0	1	8.847199776500929E+000	-1.2032150E-001	-1.2041230E-001	1.032517188665870E+000	1.2432777E-004
2	1	0	0	8.897299775235297E+000	-1.1531287E-001	-1.1540347E-001	1.033465157404396E+000	1.1926547E-004
2	1	0	0	8.947399773969664E+000	-1.1030310E-001	-1.1040388E-001	1.035881382275528E+000	1.1436532E-004
2	1	0	0	8.997399772706558E+000	-1.0530082E-001	-1.0540373E-001	1.035398160952091E+000	1.0913482E-004
2	1	0	1	9.047499771440926E+000	-1.0029396E-001	-1.0038243E-001	1.036407566229068E+000	1.0403711E-004
2	1	0	1	9.097599770175293E+000	-9.5282428E-002	-9.5371000E-002	1.036778097788585E+000	9.8878561E-005
2	1	0	1	9.147599768912187E+000	-9.0281270E-002	-9.0393342E-002	1.039088939881758E+000	9.3926719E-005
2	1	0	1	9.197599767649081E+000	-8.5283875E-002	-8.5401386E-002	1.040306722232085E+000	8.8843633E-005
2	1	0	0	9.247799766380922E+000	-8.0261782E-002	-8.0363683E-002	1.040194054141097E+000	8.3593826E-005
2	1	0	0	9.297799765117816E+000	-7.5262345E-002	-7.5357012E-002	1.042084545119302E+000	7.8528377E-005
2	1	0	0	9.347799763854709E+000	-7.0263281E-002	-7.0362523E-002	1.043003203163649E+000	7.3388335E-005
2	1	0	1	9.397999762586551E+000	-6.5241002E-002	-6.5347783E-002	1.043937193819402E+000	6.8218978E-005
2	1	0	1	9.447999761323445E+000	-6.0243394E-002	-6.0342111E-002	1.044593967754299E+000	6.3033003E-005
2	1	0	1	9.497999760060338E+000	-5.5242557E-002	-5.5338174E-002	1.045334850675172E+000	5.7846923E-005
2	1	0	0	9.548099758794706E+000	-5.0230760E-002	-5.0331350E-002	1.046072818824662E+000	5.2650259E-005
2	1	0	0	9.598199757529073E+000	-4.5224033E-002	-4.5337010E-002	1.045967485798585E+000	4.7421039E-005
2	1	0	0	9.648199756265967E+000	-4.0221948E-002	-4.0322009E-002	1.044742584036696E+000	4.2126121E-005
2	1	0	1	9.698299755000335E+000	-3.5211805E-002	-3.5308395E-002	1.045140626225718E+000	3.6902238E-005
2	1	0	1	9.748399753734702E+000	-3.0203465E-002	-3.0295173E-002	1.046923196486521E+000	3.1716718E-005
2	1	0	1	9.798399752471596E+000	-2.5201187E-002	-2.5293143E-002	1.047776674645869E+000	2.6501566E-005
2	1	0	0	9.848499751205964E+000	-2.0192845E-002	-2.0289794E-002	1.048986538374612E+000	2.1283720E-005
2	1	0	0	9.898599749940331E+000	-1.5182700E-002	-1.5280479E-002	1.048961067942463E+000	1.6028627E-005
2	1	0	0	9.948599748677225E+000	-1.0180620E-002	-1.0296439E-002	1.049446800099679E+000	1.0805565E-005
2	1	0	1	9.998699747411592E+000	-5.1738988E-003	-5.2971635E-003	1.051383594850373E+000	5.5693508E-006
2	1	0	1	1.004879974614596E+001	-1.6213141E-004	-2.8296284E-004	1.052813493193252E+000	2.9790709E-007
2	1	0	1	1.009879974488285E+001	4.8387176E-003	4.7255885E-003	1.052718377294745E+000	4.9747136E-006
2	1	0	1	1.014879974361975E+001	9.8363338E-003	9.7077200E-003	1.054279713294685E+000	1.0234652E-005
2	1	0	0	1.019899974235159E+001	1.4858574E-002	1.4762050E-002	1.055097698181154E+000	1.5575404E-005
2	1	0	0	1.024899974108848E+001	1.9857610E-002	1.9762317E-002	1.055709751448394E+000	2.0863270E-005
2	1	0	0	1.029899973982538E+001	2.4857027E-002	2.4746513E-002	1.056264415192472E+000	2.6138861E-005
2	1	0	1	1.034919973855722E+001	2.9879073E-002	2.9779479E-002	1.057600487812870E+000	3.1494790E-005
2	1	0	1	1.039919973729411E+001	3.4876496E-002	3.4762193E-002	1.056731095653981E+000	3.6734291E-005
2	1	0	1	1.044919973603101E+001	3.9877538E-002	3.9771501E-002	1.056171553785573E+000	4.2005529E-005
2	1	0	0	1.049929973476537E+001	4.4889100E-002	4.4776045E-002	1.057127837273939E+000	4.7334004E-005
2	1	0	0	1.054939973349974E+001	4.9896002E-002	4.9786560E-002	1.057685842623339E+000	5.2658539E-005
2	1	0	0	1.059939973223663E+001	5.4898236E-002	5.4799367E-002	1.059245251003999E+000	5.8045967E-005
2	1	0	1	1.064949973097100E+001	5.9907962E-002	5.9813067E-002	1.059576243389666E+000	6.3376508E-005
2	1	0	1	1.069959972970537E+001	6.4916708E-002	6.4823061E-002	1.059091835831351E+000	6.8653571E-005
2	1	0	1	1.074959972844226E+001	6.9918945E-002	6.9815286E-002	1.058671949035438E+000	7.3911484E-005
2	1	0	0	1.079969972717663E+001	7.4926808E-002	7.4830763E-002	1.059745689008825E+000	7.9301579E-005
2	1	0	0	1.084979972591100E+001	7.9937175E-002	7.9852782E-002	1.060040478486962E+000	8.4647181E-005
2	1	0	0	1.089979972464789E+001	8.4939465E-002	8.4837481E-002	1.060114964790877E+000	8.9937486E-005
2	1	0	1	1.094989972338226E+001	8.9945771E-002	8.9848652E-002	1.061499489855925E+000	9.5374300E-005
2	1	0	1	1.099999972211663E+001	9.4957858E-002	9.4868772E-002	1.061987278862217E+000	1.0074943E-004
2	1	0	1	1.103749972116930E+001	9.8706871E-002	9.8596998E-002	1.060855371722337E+000	1.0459715E-004
2	1	0	0	1.105019972084847E+001	9.9983580E-002	9.9802546E-002	1.060835242271423E+000	1.0587406E-004
2	1	0	1	1.105039972084342E+001	1.0003365E-001	9.9974431E-002	1.062363505363464E+000	1.0620919E-004