EC-Lab ASCII FILE
Nb header lines : 55                          

I-V Characterization

Run on channel : 1 (SN 6514)
User : 
CE vs. WE compliance from -10 V to 10 V
Electrode connection : standard
Ewe ctrl range : min = -1.10 V, max = 0.20 V
Safety Limits :
	Do not start on E overload
Acquisition started on : 06/15/2016 17:34:54
Saved on :
	File : B125-G54-UN-G-D1GB-C1 BW 10mVs_C01.mpr
	Directory : E:\EC-Lab measurements\B125-G54-UN-G-D1GB\
	Host : 10.0.2.15
Device : VSP (SN 0295)
Address : USB
EC-Lab for windows v11.01 (software)
Internet server v11.00 (firmware)
Command interpretor v11.00 (firmware)
Electrode material : 
Initial state : 
Electrolyte : 
Comments : 
Electrode surface area : 0.001 cm²
Characteristic mass : 0.001 g
Equivalent Weight : 0.000 g/eq.
Density : 0.000 g/cm3
tR (h:m:s)          0:00:0.0000         
dER/dt (mV/h)       0.0                 
dER (mV)            0                   
dtR (s)             0.0000              
dE/dt               10.000              
dE/dt unit          mV/s                
Ei (V)              -1.000              
vs.                 Ref                 
EL (V)              0.100               
vs.                 Ref                 
record              <I>                 
dI                  0.000               
unit dI             µA                  
tI (s)              0.1000              
step percent        100                 
N                   100                 
E range min (V)     -1.100              
E range max (V)     0.200               
I Range             Auto                
I Range min         Unset               
I Range max         Unset               
I Range init        Unset               
Bandwidth           5                   

mode	ox/red	error	control changes	time/s	control/V	Ewe/V	<I>/mA	P/W
2	1	0	0	1.449999963369919E-001	-9.9910086E-001	-9.9916005E-001	-1.391838593482973E+000	1.3906695E-003
2	1	0	1	3.977999899507267E-001	-9.9657500E-001	-9.9669009E-001	-1.396589538736565E+000	1.3919669E-003
2	1	0	0	8.983999773045070E-001	-9.9156934E-001	-9.9169511E-001	-1.365637305401818E+000	1.3542959E-003
2	1	0	1	1.399099964655761E+000	-9.8656201E-001	-9.8669791E-001	-1.283586219511353E+000	1.2665119E-003
2	1	0	1	1.899799952007015E+000	-9.8155510E-001	-9.8169291E-001	-1.192567557045567E+000	1.1707351E-003
2	1	0	0	2.400399939360796E+000	-9.7654915E-001	-9.7669107E-001	-1.113735002137723E+000	1.0877750E-003
2	1	0	1	2.900999926714576E+000	-9.7154289E-001	-9.7165734E-001	-1.050573650018737E+000	1.0207976E-003
2	1	0	0	3.401599914068356E+000	-9.6653724E-001	-9.6667033E-001	-9.968460057598492E-001	9.6362148E-004
2	1	0	1	3.902199901422136E+000	-9.6153092E-001	-9.6162999E-001	-9.506810357250819E-001	9.1420341E-004
2	1	0	0	4.402899888773391E+000	-9.5652413E-001	-9.5661896E-001	-9.121470033004968E-001	8.7257713E-004
2	1	0	0	4.903599876124645E+000	-9.5151716E-001	-9.5164126E-001	-8.784643980408968E-001	8.3598297E-004
2	1	0	1	5.404199863478425E+000	-9.4651091E-001	-9.4665080E-001	-8.480648694015116E-001	8.0282131E-004
2	1	0	0	5.904799850832205E+000	-9.4150531E-001	-9.4162732E-001	-8.184376365612449E-001	7.7066326E-004
2	1	0	1	6.405399838185986E+000	-9.3649906E-001	-9.3661922E-001	-7.923874359558774E-001	7.4216531E-004
2	1	0	0	6.905999825539766E+000	-9.3149316E-001	-9.3163037E-001	-7.681151884471191E-001	7.1559945E-004
2	1	0	1	7.406599812893546E+000	-9.2648703E-001	-9.2660159E-001	-7.445221782872817E-001	6.8987545E-004
2	1	0	0	7.907299800244800E+000	-9.2147982E-001	-9.2159098E-001	-7.209950981271831E-001	6.6446257E-004
2	1	0	0	8.407999787596054E+000	-9.1647321E-001	-9.1658521E-001	-6.985689980693137E-001	6.4029801E-004
2	1	0	1	8.908599774949835E+000	-9.1146696E-001	-9.1158557E-001	-6.782304470660367E-001	6.1826507E-004
2	1	0	0	9.409199762303615E+000	-9.0646118E-001	-9.0659213E-001	-6.575014449571510E-001	5.9608562E-004
2	1	0	1	9.909799749657395E+000	-9.0145504E-001	-9.0157115E-001	-6.373115166466646E-001	5.7458167E-004
2	1	0	0	1.041039973701118E+001	-8.9644885E-001	-8.9655548E-001	-6.180173339529897E-001	5.5408682E-004
2	1	0	1	1.091109972436243E+001	-8.9144212E-001	-8.9155370E-001	-5.980699666409321E-001	5.3321151E-004
2	1	0	1	1.141179971171368E+001	-8.8643497E-001	-8.8655370E-001	-5.797455776780733E-001	5.1397557E-004
2	1	0	0	1.191239969906746E+001	-8.8142926E-001	-8.8153601E-001	-5.603464213355900E-001	4.9396552E-004
2	1	0	1	1.241299968642124E+001	-8.7642288E-001	-8.7654746E-001	-5.415021472869892E-001	4.7465233E-004
2	1	0	0	1.291359967377502E+001	-8.7141681E-001	-8.7156141E-001	-5.228968299727565E-001	4.5573671E-004
2	1	0	1	1.341419966112881E+001	-8.6641103E-001	-8.6655051E-001	-5.047051215287963E-001	4.3735249E-004
2	1	0	0	1.393239964803797E+001	-8.6122882E-001	-8.6136889E-001	-4.867884864695213E-001	4.1930447E-004
2	1	0	1	1.445059963494714E+001	-8.5604715E-001	-8.5612708E-001	-4.683058211641873E-001	4.0092930E-004
2	1	0	0	1.495119962230092E+001	-8.5104084E-001	-8.5112590E-001	-4.499756851435475E-001	3.8298595E-004
2	1	0	1	1.545179960965470E+001	-8.4603500E-001	-8.4612173E-001	-4.324768042260985E-001	3.6592802E-004
2	1	0	0	1.595239959700848E+001	-8.4102893E-001	-8.4109849E-001	-4.149292199903263E-001	3.4899634E-004
2	1	0	1	1.645299958436226E+001	-8.3602279E-001	-8.3610171E-001	-3.973554869509552E-001	3.3222960E-004
2	1	0	0	1.695369957171351E+001	-8.3101606E-001	-8.3111632E-001	-3.796207439504862E-001	3.1550901E-004
2	1	0	0	1.745439955906477E+001	-8.2600892E-001	-8.2610977E-001	-3.623318277065160E-001	2.9932585E-004
2	1	0	1	1.795499954641855E+001	-8.2100302E-001	-8.2108295E-001	-3.444097133138015E-001	2.8278894E-004
2	1	0	0	1.845559953377233E+001	-8.1599689E-001	-8.1610125E-001	-3.273774188192977E-001	2.6717313E-004
2	1	0	1	1.895619952112611E+001	-8.1099081E-001	-8.1107885E-001	-3.099083610024477E-001	2.5136012E-004
2	1	0	0	1.945679950847989E+001	-8.0598509E-001	-8.0607766E-001	-2.924197074303283E-001	2.3571300E-004
2	1	0	1	1.995749949583114E+001	-8.0097783E-001	-8.0105835E-001	-2.753753989575785E-001	2.2059177E-004
2	1	0	1	2.045819948318240E+001	-7.9597098E-001	-7.9604703E-001	-2.580451660782981E-001	2.0541609E-004
2	1	0	0	2.095879947053618E+001	-7.9096490E-001	-7.9102969E-001	-2.407041862431134E-001	1.9040416E-004
2	1	0	1	2.145939945788996E+001	-7.8595871E-001	-7.8603017E-001	-2.235304492064429E-001	1.7570167E-004
2	1	0	0	2.195999944524374E+001	-7.8095299E-001	-7.8102475E-001	-2.063044077293221E-001	1.6112885E-004
2	1	0	1	2.246059943259752E+001	-7.7594680E-001	-7.7600980E-001	-1.892116600925093E-001	1.4683011E-004
2	1	0	0	2.296119941995130E+001	-7.7094090E-001	-7.7100813E-001	-1.720753746793628E-001	1.3267151E-004
2	1	0	1	2.346189940730255E+001	-7.6593375E-001	-7.6599914E-001	-1.550826763072297E-001	1.1879320E-004
2	1	0	1	2.396259939465381E+001	-7.6092660E-001	-7.6098257E-001	-1.379876485193026E-001	1.0500620E-004
2	1	0	0	2.446319938200759E+001	-7.5592089E-001	-7.5597280E-001	-1.209893647794664E-001	9.1464666E-005
2	1	0	1	2.496379936936137E+001	-7.5091481E-001	-7.5096369E-001	-1.041290832905654E-001	7.8197161E-005
2	1	0	0	2.546439935671515E+001	-7.4590898E-001	-7.4597162E-001	-8.705307374960003E-002	6.4939122E-005
2	1	0	1	2.596499934406893E+001	-7.4090266E-001	-7.4095529E-001	-7.019906501595605E-002	5.2014369E-005
2	1	0	0	2.646569933142018E+001	-7.3589563E-001	-7.3594332E-001	-5.371660196094008E-002	3.9532373E-005
2	1	0	0	2.698389931832935E+001	-7.3071390E-001	-7.3076683E-001	-3.645833673161220E-002	2.6642543E-005
2	1	0	0	2.750199930524104E+001	-7.2553271E-001	-7.2557354E-001	-1.913099202997035E-002	1.3880942E-005
2	1	0	1	2.800259929259482E+001	-7.2052687E-001	-7.2056741E-001	-2.548076981716933E-003	1.8360612E-006
2	1	0	0	2.850319927994860E+001	-7.1552062E-001	-7.1557111E-001	1.363785143019272E-002	9.7588527E-006
2	1	0	1	2.900379926730238E+001	-7.1051472E-001	-7.1056658E-001	3.028773423422604E-002	2.1521451E-005
2	1	0	1	2.950459925465111E+001	-7.0550668E-001	-7.0556605E-001	4.672695204117816E-002	3.2968950E-005
2	1	0	0	3.000519924200489E+001	-7.0050061E-001	-7.0053631E-001	6.249763896077182E-002	4.3781867E-005
2	1	0	1	3.050579922935867E+001	-6.9549489E-001	-6.9554591E-001	7.897517917861618E-002	5.4930864E-005
2	1	0	0	3.102389921627037E+001	-6.9031358E-001	-6.9035649E-001	9.539341351945330E-002	6.5855464E-005
2	1	0	0	3.154199920318206E+001	-6.8513274E-001	-6.8517745E-001	1.114622508228999E-001	7.6371420E-005
2	1	0	0	3.204279919053079E+001	-6.8012470E-001	-6.8017799E-001	1.276318160884455E-001	8.6812353E-005
2	1	0	1	3.254339917788457E+001	-6.7511857E-001	-6.7516440E-001	1.436569382118384E-001	9.6992051E-005
2	1	0	0	3.304399916523835E+001	-6.7011267E-001	-6.7017388E-001	1.591225268174242E-001	1.0663976E-004
2	1	0	1	3.354459915259213E+001	-6.6510659E-001	-6.6515595E-001	1.747094289072515E-001	1.1620901E-004
2	1	0	0	3.404519913994591E+001	-6.6010070E-001	-6.6015494E-001	1.900626928062201E-001	1.2547082E-004
2	1	0	1	3.454579912729969E+001	-6.5509450E-001	-6.5516073E-001	2.052874731472972E-001	1.3449629E-004
2	1	0	0	3.504649911465094E+001	-6.5008736E-001	-6.5016425E-001	2.198122372208671E-001	1.4291405E-004
2	1	0	0	3.554719910200220E+001	-6.4508063E-001	-6.4515585E-001	2.348289837830002E-001	1.5150130E-004
2	1	0	1	3.604779908935598E+001	-6.4007461E-001	-6.4014250E-001	2.500896731566888E-001	1.6009303E-004
2	1	0	0	3.654839907670976E+001	-6.3506871E-001	-6.3514996E-001	2.642835379047566E-001	1.6785967E-004
2	1	0	1	3.704899906406354E+001	-6.3006246E-001	-6.3016182E-001	2.779673974027794E-001	1.7516444E-004
2	1	0	0	3.754959905141732E+001	-6.2505639E-001	-6.2513804E-001	2.926441704536513E-001	1.8294301E-004
2	1	0	1	3.805019903877110E+001	-6.2005049E-001	-6.2014824E-001	3.073275657046026E-001	1.9058865E-004
2	1	0	1	3.855099902611983E+001	-6.1504257E-001	-6.1513960E-001	3.215589245193309E-001	1.9780363E-004
2	1	0	0	3.905159901347361E+001	-6.1003667E-001	-6.1012441E-001	3.355134470035082E-001	2.0470495E-004
2	1	0	1	3.955219900082739E+001	-6.0503042E-001	-6.0511190E-001	3.483219348325504E-001	2.1077375E-004
2	1	0	0	4.005279898818117E+001	-6.0002446E-001	-6.0009897E-001	3.621147416811246E-001	2.1730468E-004
2	1	0	1	4.055339897553495E+001	-5.9501851E-001	-5.9511197E-001	3.767954896220225E-001	2.2423551E-004
2	1	0	0	4.105399896288873E+001	-5.9001237E-001	-5.9009230E-001	3.894090382997191E-001	2.2978727E-004
2	1	0	1	4.155469895023998E+001	-5.8500552E-001	-5.8508754E-001	4.013073850295266E-001	2.3479995E-004
2	1	0	1	4.205539893759124E+001	-5.7999843E-001	-5.8009034E-001	4.150382346074291E-001	2.4075968E-004
2	1	0	0	4.255599892494502E+001	-5.7499248E-001	-5.7508266E-001	4.288726740724931E-001	2.4663724E-004
2	1	0	1	4.305659891229880E+001	-5.6998634E-001	-5.7007813E-001	4.406359108369031E-001	2.5119691E-004
2	1	0	0	4.355719889965258E+001	-5.6498033E-001	-5.6506258E-001	4.528333098347757E-001	2.5587916E-004
2	1	0	1	4.405779888700636E+001	-5.5997449E-001	-5.6005639E-001	4.645808060630487E-001	2.6019145E-004
2	1	0	0	4.455839887436014E+001	-5.5496842E-001	-5.5506253E-001	4.776676520304672E-001	2.6513543E-004
2	1	0	1	4.505909886171139E+001	-5.4996139E-001	-5.5004793E-001	4.886907082700200E-001	2.6880333E-004
2	1	0	1	4.555979884906264E+001	-5.4495424E-001	-5.4503542E-001	5.006656705496684E-001	2.7288051E-004
2	1	0	0	4.606039883641643E+001	-5.3994823E-001	-5.4002923E-001	5.121530300152802E-001	2.7657760E-004
2	1	0	1	4.656099882377021E+001	-5.3494233E-001	-5.3502119E-001	5.220210447704465E-001	2.7929232E-004
2	1	0	0	4.706159881112399E+001	-5.2993631E-001	-5.3001565E-001	5.331039192718610E-001	2.8255343E-004
2	1	0	1	4.756219879847777E+001	-5.2493018E-001	-5.2500945E-001	5.447064253325919E-001	2.8597601E-004
2	1	0	0	4.806289878582902E+001	-5.1992315E-001	-5.2002662E-001	5.557381326582220E-001	2.8899862E-004
2	1	0	0	4.856359877318027E+001	-5.1491618E-001	-5.1499993E-001	5.669968739863055E-001	2.9200336E-004
2	1	0	1	4.906419876053405E+001	-5.0991017E-001	-5.0998884E-001	5.763221479944276E-001	2.9391787E-004
2	1	0	0	4.956479874788783E+001	-5.0490427E-001	-5.0498110E-001	5.869355459188395E-001	2.9639137E-004
2	1	0	1	5.006539873524162E+001	-4.9989825E-001	-4.9997562E-001	5.975092252249610E-001	2.9874005E-004
2	1	0	0	5.056599872259540E+001	-4.9489221E-001	-4.9497440E-001	6.059218893114089E-001	2.9991582E-004
2	1	0	1	5.106659870994918E+001	-4.8988608E-001	-4.8996845E-001	6.152770160908876E-001	3.0146632E-004
2	1	0	0	5.156729869730043E+001	-4.8487908E-001	-4.8495501E-001	6.250240144096670E-001	3.0310854E-004
2	1	0	0	5.206799868465168E+001	-4.7987220E-001	-4.7994065E-001	6.343214504014884E-001	3.0443666E-004
2	1	0	1	5.256859867200546E+001	-4.7486621E-001	-4.7493255E-001	6.426106921167740E-001	3.0519674E-004
2	1	0	0	5.306919865935924E+001	-4.6986014E-001	-4.6991757E-001	6.529351744165375E-001	3.0682571E-004
2	1	0	1	5.356979864671302E+001	-4.6485412E-001	-4.6492603E-001	6.599311564112451E-001	3.0681919E-004
2	1	0	0	5.407039863406681E+001	-4.5984808E-001	-4.5992321E-001	6.681825953983918E-001	3.0731267E-004
2	1	0	1	5.457109862141806E+001	-4.5484105E-001	-4.5490053E-001	6.769762537145576E-001	3.0795686E-004
2	1	0	1	5.507179860876931E+001	-4.4983423E-001	-4.4989756E-001	6.862203332760384E-001	3.0872886E-004
2	1	0	0	5.557239859612309E+001	-4.4482821E-001	-4.4488448E-001	6.934640411579454E-001	3.0851140E-004
2	1	0	1	5.607299858347687E+001	-4.3982214E-001	-4.3988264E-001	7.025533244409381E-001	3.0904100E-004
2	1	0	0	5.657359857083065E+001	-4.3481600E-001	-4.3488115E-001	7.100081273731949E-001	3.0876914E-004
2	1	0	1	5.707419855818443E+001	-4.2981002E-001	-4.2987177E-001	7.169663120275818E-001	3.0820357E-004
2	1	0	0	5.757479854553822E+001	-4.2480409E-001	-4.2486641E-001	7.230859352584913E-001	3.0721491E-004
2	1	0	1	5.807549853288947E+001	-4.1979715E-001	-4.1986859E-001	7.311770786570317E-001	3.0699829E-004
2	1	0	1	5.857619852024072E+001	-4.1479015E-001	-4.1485393E-001	7.389140142194677E-001	3.0654139E-004
2	1	0	0	5.907679850759450E+001	-4.0978408E-001	-4.0984806E-001	7.442682828861500E-001	3.0503693E-004
2	1	0	1	5.957739849494828E+001	-4.0477803E-001	-4.0483898E-001	7.518394950581779E-001	3.0437394E-004
2	1	0	0	6.007799848230206E+001	-3.9977202E-001	-3.9985394E-001	7.578721288654009E-001	3.0303816E-004
2	1	0	1	6.057859846965584E+001	-3.9476606E-001	-3.9483389E-001	7.654575695634944E-001	3.0222858E-004
2	1	0	0	6.107929845700710E+001	-3.8975906E-001	-3.8982147E-001	7.716495664475342E-001	3.0080558E-004
2	1	0	0	6.157999844435835E+001	-3.8475204E-001	-3.8483027E-001	7.772606502710087E-001	2.9911342E-004
2	1	0	1	6.208059843171213E+001	-3.7974599E-001	-3.7981421E-001	7.840315172794066E-001	2.9778632E-004
2	1	0	0	6.258119841906591E+001	-3.7474000E-001	-3.7480190E-001	7.912161777016760E-001	2.9654932E-004
2	1	0	1	6.308179840641969E+001	-3.6973405E-001	-3.6980039E-001	7.952616525182972E-001	2.9408807E-004
2	1	0	0	6.358239839377347E+001	-3.6472800E-001	-3.6478281E-001	7.988755449158074E-001	2.9141607E-004
2	1	0	1	6.408299838112725E+001	-3.5972199E-001	-3.5979119E-001	8.038824583910955E-001	2.8922982E-004
2	1	0	0	6.458369836847851E+001	-3.5471493E-001	-3.5477170E-001	8.107135761141535E-001	2.8761823E-004
2	1	0	0	6.508439835582976E+001	-3.4970799E-001	-3.4977442E-001	8.144811294122576E-001	2.8488468E-004
2	1	0	1	6.558499834318354E+001	-3.4470198E-001	-3.4475008E-001	8.192292217029067E-001	2.8242933E-004
2	1	0	0	6.608559833053732E+001	-3.3969602E-001	-3.3973294E-001	8.256838634815420E-001	2.8051200E-004
2	1	0	1	6.658619831789110E+001	-3.3468994E-001	-3.3472750E-001	8.295008191141466E-001	2.7765674E-004
2	1	0	0	6.708679830524488E+001	-3.2968387E-001	-3.2972857E-001	8.346796381557127E-001	2.7521772E-004
2	1	0	1	6.758749829259614E+001	-3.2467687E-001	-3.2473993E-001	8.389953633936180E-001	2.7245531E-004
2	1	0	1	6.808819827994739E+001	-3.1966993E-001	-3.1975657E-001	8.444185562670832E-001	2.7000837E-004
2	1	0	0	6.858879826730117E+001	-3.1466395E-001	-3.1473076E-001	8.493307189159123E-001	2.6731050E-004
2	1	0	1	6.908939825465495E+001	-3.0965796E-001	-3.0973923E-001	8.523636596709805E-001	2.6401048E-004
2	1	0	0	6.958999824200873E+001	-3.0465189E-001	-3.0471337E-001	8.565438162474788E-001	2.6100036E-004
2	1	0	1	7.009059822936251E+001	-2.9964581E-001	-2.9971918E-001	8.592191959291822E-001	2.5752449E-004
2	1	0	0	7.059119821671629E+001	-2.9463977E-001	-2.9470944E-001	8.641392924238929E-001	2.5467001E-004
2	1	0	1	7.109189820406755E+001	-2.8963286E-001	-2.8969532E-001	8.683011556668296E-001	2.5154278E-004
2	1	0	1	7.159259819141880E+001	-2.8462586E-001	-2.8469718E-001	8.710246671056798E-001	2.4797826E-004
2	1	0	0	7.209319817877258E+001	-2.7961981E-001	-2.7968422E-001	8.727278829721943E-001	2.4408821E-004
2	1	0	1	7.259379816612636E+001	-2.7461377E-001	-2.7467686E-001	8.770100231848552E-001	2.4089435E-004
2	1	0	0	7.309439815348014E+001	-2.6960775E-001	-2.6966751E-001	8.822743490750362E-001	2.3792073E-004
2	1	0	1	7.359499814083392E+001	-2.6460174E-001	-2.6468021E-001	8.841578199718576E-001	2.3401907E-004
2	1	0	0	7.409559812818770E+001	-2.5959572E-001	-2.5965452E-001	8.875907783346912E-001	2.3046696E-004
2	1	0	0	7.459639811553643E+001	-2.5458777E-001	-2.5465256E-001	8.894005032093251E-001	2.2648812E-004
2	1	0	1	7.509699810289021E+001	-2.4958171E-001	-2.4964905E-001	8.942060213693441E-001	2.2323769E-004
2	1	0	0	7.559759809024399E+001	-2.4457574E-001	-2.4465530E-001	8.983494498901399E-001	2.1978596E-004
2	1	0	1	7.609819807759777E+001	-2.3956971E-001	-2.3965845E-001	8.985340349731068E-001	2.1534126E-004
2	1	0	0	7.659879806495155E+001	-2.3456368E-001	-2.3465173E-001	9.007614422631622E-001	2.1136523E-004
2	1	0	1	7.709939805230533E+001	-2.2955771E-001	-2.2964238E-001	9.058748835389583E-001	2.0802727E-004
2	1	0	0	7.760009803965659E+001	-2.2455068E-001	-2.2464027E-001	9.086945459542459E-001	2.0412938E-004
2	1	0	0	7.810079802700784E+001	-2.1954373E-001	-2.1962059E-001	9.101052992216649E-001	1.9987786E-004
2	1	0	1	7.860139801436162E+001	-2.1453768E-001	-2.1462125E-001	9.112544435433794E-001	1.9557457E-004
2	1	0	0	7.910199800171540E+001	-2.0953165E-001	-2.0962618E-001	9.140482809080197E-001	1.9160846E-004
2	1	0	1	7.960259798906918E+001	-2.0452569E-001	-2.0461926E-001	9.174648963572096E-001	1.8773098E-004
2	1	0	0	8.010319797642296E+001	-1.9951965E-001	-1.9961192E-001	9.168382853853732E-001	1.8301184E-004
2	1	0	1	8.060379796377674E+001	-1.9451360E-001	-1.9459501E-001	9.196262327355675E-001	1.7895468E-004
2	1	0	1	8.110459795112547E+001	-1.8950570E-001	-1.8958524E-001	9.239818109525793E-001	1.7517331E-004
2	1	0	0	8.160519793847925E+001	-1.8449967E-001	-1.8459062E-001	9.250957634552304E-001	1.7076400E-004
2	1	0	1	8.210579792583303E+001	-1.7949361E-001	-1.7957006E-001	9.258672966100434E-001	1.6625805E-004
2	1	0	0	8.260639791318681E+001	-1.7448762E-001	-1.7457353E-001	9.292118196865431E-001	1.6221579E-004
2	1	0	1	8.310699790054059E+001	-1.6948156E-001	-1.6954729E-001	9.300322796150002E-001	1.5768445E-004
2	1	0	0	8.360759788789437E+001	-1.6447556E-001	-1.6453563E-001	9.297263702750200E-001	1.5297311E-004
2	1	0	1	8.410829787524563E+001	-1.5946858E-001	-1.5953071E-001	9.313097587997456E-001	1.4857251E-004
2	1	0	1	8.460899786259688E+001	-1.5446159E-001	-1.5452103E-001	9.347005237643113E-001	1.4443089E-004
2	1	0	0	8.510959784995066E+001	-1.4945558E-001	-1.4952576E-001	9.340633188702057E-001	1.3966653E-004
2	1	0	1	8.561019783730444E+001	-1.4444955E-001	-1.4452142E-001	9.372435633396243E-001	1.3545176E-004
2	1	0	0	8.611079782465822E+001	-1.3944350E-001	-1.3948433E-001	9.370983712810759E-001	1.3071054E-004
2	1	0	1	8.661139781201200E+001	-1.3443747E-001	-1.3448919E-001	9.406252649246225E-001	1.2650393E-004
2	1	0	0	8.711199779936578E+001	-1.2943146E-001	-1.2945992E-001	9.395900256209604E-001	1.2163925E-004
2	1	0	0	8.761279778671451E+001	-1.2442351E-001	-1.2446532E-001	9.418023687803654E-001	1.1722174E-004
2	1	0	1	8.811339777406829E+001	-1.1941748E-001	-1.1945990E-001	9.420321790516013E-001	1.1253508E-004
2	1	0	0	8.861399776142207E+001	-1.1441148E-001	-1.1445872E-001	9.407445762385891E-001	1.0767642E-004
2	1	0	1	8.911459774877585E+001	-1.0940545E-001	-1.0945047E-001	9.447966333312321E-001	1.0340843E-004
2	1	0	0	8.961519773612963E+001	-1.0439944E-001	-1.0444777E-001	9.474206172189685E-001	9.8955970E-005
2	1	0	1	9.011579772348341E+001	-9.9393420E-002	-9.9427007E-002	9.439802526472860E-001	9.3857132E-005
2	1	0	0	9.061649771083466E+001	-9.4386429E-002	-9.4418243E-002	9.465433590986798E-001	8.9370958E-005
2	1	0	0	9.111719769818592E+001	-8.9379460E-002	-8.9436278E-002	9.497114991782996E-001	8.4938663E-005
2	1	0	1	9.161779768553970E+001	-8.4373422E-002	-8.4418900E-002	9.491034830938103E-001	8.0122270E-005
2	1	0	0	9.211839767289348E+001	-7.9367407E-002	-7.9403028E-002	9.485134854586406E-001	7.5314842E-005
2	1	0	1	9.261899766024726E+001	-7.4361376E-002	-7.4407265E-002	9.515484609990228E-001	7.0802118E-005
2	1	0	0	9.311959764760104E+001	-6.9355369E-002	-6.9402069E-002	9.510154969733104E-001	6.6002445E-005
2	1	0	1	9.362019763495482E+001	-6.4349316E-002	-6.4407244E-002	9.499466869215194E-001	6.1183448E-005
2	1	0	0	9.412089762230607E+001	-5.9342384E-002	-5.9386540E-002	9.516438202199224E-001	5.6514833E-005
2	1	0	0	9.462159760965733E+001	-5.4335352E-002	-5.4386899E-002	9.562858495374424E-001	5.2009422E-005
2	1	0	1	9.512219759701111E+001	-4.9329355E-002	-4.9379777E-002	9.554222224109894E-001	4.7178535E-005
2	1	0	0	9.562279758436489E+001	-4.4323314E-002	-4.4385735E-002	9.552206156154774E-001	4.2398169E-005
2	1	0	1	9.612339757171867E+001	-3.9317302E-002	-3.9353698E-002	9.550407259312870E-001	3.7584385E-005
2	1	0	0	9.662399755907245E+001	-3.4311283E-002	-3.4362514E-002	9.548126729043549E-001	3.2809763E-005
2	1	0	1	9.712469754642370E+001	-2.9304298E-002	-2.9361377E-002	9.573149908890670E-001	2.8108087E-005
2	1	0	1	9.762539753377496E+001	-2.4297321E-002	-2.4339572E-002	9.589551331067003E-001	2.3340557E-005
2	1	0	0	9.812599752112874E+001	-1.9291310E-002	-1.9322693E-002	9.582970474566910E-001	1.8516879E-005
2	1	0	1	9.862659750848252E+001	-1.4285272E-002	-1.4343127E-002	9.607345393271785E-001	1.3779937E-005
2	1	0	0	9.912719749583630E+001	-9.2792604E-003	-9.3542831E-003	9.593252526551492E-001	8.9737996E-006
2	1	0	1	9.962779748319008E+001	-4.2732470E-003	-4.3418496E-003	9.598640772091047E-001	4.1675853E-006
2	1	0	0	1.001283974705439E+002	7.3278649E-004	6.7724905E-004	9.611529331527997E-001	6.5093991E-007
2	1	0	1	1.006290974578951E+002	5.7397089E-003	5.6693382E-003	9.631753185435912E-001	5.4605666E-006
2	1	0	1	1.011297974452464E+002	1.0746708E-002	1.0674651E-002	9.622912024846535E-001	1.0272122E-005
2	1	0	0	1.016303974326001E+002	1.5752703E-002	1.5690224E-002	9.607029734433450E-001	1.5073645E-005
2	1	0	1	1.021309974199539E+002	2.0758715E-002	2.0706883E-002	9.627324808198940E-001	1.9935189E-005
2	1	0	0	1.026315974073077E+002	2.5764707E-002	2.5697052E-002	9.646974622293776E-001	2.4789881E-005
2	1	0	1	1.031321973946615E+002	3.0770725E-002	3.0702325E-002	9.620570462522062E-001	2.9537388E-005
2	1	0	0	1.036328973820127E+002	3.5777699E-002	3.5713799E-002	9.640089899313338E-001	3.4428424E-005
2	1	0	0	1.041335973693640E+002	4.0784638E-002	4.0718775E-002	9.626421896418595E-001	3.9197610E-005
2	1	0	1	1.046341973567178E+002	4.5790624E-002	4.5719966E-002	9.628384894074173E-001	4.4020944E-005
2	1	0	0	1.051347973440716E+002	5.0796643E-002	5.0735001E-002	9.666364652777322E-001	4.9042301E-005
2	1	0	1	1.056353973314253E+002	5.5802658E-002	5.5743530E-002	9.655487360792190E-001	5.3823096E-005
2	1	0	0	1.061359973187791E+002	6.0808662E-002	6.0764171E-002	9.674467961421254E-001	5.8786103E-005
2	1	0	1	1.066365973061329E+002	6.5814652E-002	6.5767013E-002	9.676098133026558E-001	6.3636806E-005
2	1	0	0	1.071372972934842E+002	7.0821576E-002	7.0766658E-002	9.686921957744206E-001	6.8551111E-005
2	1	0	0	1.076379972808354E+002	7.5828552E-002	7.5774446E-002	9.669852974291286E-001	7.3272779E-005
2	1	0	1	1.081385972681892E+002	8.0834553E-002	8.0784112E-002	9.695507500902831E-001	7.8324294E-005
2	1	0	0	1.086391972555430E+002	8.5840538E-002	8.5789733E-002	9.671789924394600E-001	8.2974024E-005
2	1	0	1	1.091397972428967E+002	9.0846591E-002	9.0793833E-002	9.693961701277414E-001	8.8015193E-005
2	1	0	0	1.096403972302505E+002	9.5852561E-002	9.5802605E-002	9.710281113739523E-001	9.3027025E-005
2	1	0	1	1.099707972219039E+002	9.9156618E-002	9.9113442E-002	9.709278962157519E-001	9.6232005E-005
2	1	0	1	1.100527972198324E+002	9.9983580E-002	1.0006992E-001	9.710241827097814E-001	9.7170312E-005