EC-Lab ASCII FILE
Nb header lines : 55                          

I-V Characterization

Run on channel : 1 (SN 6514)
User : 
CE vs. WE compliance from -10 V to 10 V
Electrode connection : standard
Ewe ctrl range : min = -1.10 V, max = 0.20 V
Safety Limits :
	Do not start on E overload
Acquisition started on : 06/15/2016 18:00:33
Saved on :
	File : B125-G54-UN-G-D1GB-C6 BW 10mVs dark_C01.mpr
	Directory : E:\EC-Lab measurements\B125-G54-UN-G-D1GB\
	Host : 10.0.2.15
Device : VSP (SN 0295)
Address : USB
EC-Lab for windows v11.01 (software)
Internet server v11.00 (firmware)
Command interpretor v11.00 (firmware)
Electrode material : 
Initial state : 
Electrolyte : 
Comments : 
Electrode surface area : 0.001 cm²
Characteristic mass : 0.001 g
Equivalent Weight : 0.000 g/eq.
Density : 0.000 g/cm3
tR (h:m:s)          0:00:0.0000         
dER/dt (mV/h)       0.0                 
dER (mV)            0                   
dtR (s)             0.0000              
dE/dt               10.000              
dE/dt unit          mV/s                
Ei (V)              -1.000              
vs.                 Ref                 
EL (V)              0.100               
vs.                 Ref                 
record              <I>                 
dI                  0.000               
unit dI             µA                  
tI (s)              0.1000              
step percent        100                 
N                   100                 
E range min (V)     -1.100              
E range max (V)     0.200               
I Range             Auto                
I Range min         Unset               
I Range max         Unset               
I Range init        Unset               
Bandwidth           5                   

mode	ox/red	error	control changes	time/s	control/V	Ewe/V	<I>/mA	P/W
2	1	0	0	1.149999970948556E-001	-9.9941170E-001	-9.9952656E-001	-1.469414097070694E-001	1.4687184E-004
2	1	0	1	3.677999907085905E-001	-9.9688542E-001	-9.9691319E-001	-1.584634917305382E-001	1.5797434E-004
2	1	0	0	8.683999780623708E-001	-9.9187928E-001	-9.9193400E-001	-1.669855743052537E-001	1.6563867E-004
2	1	0	1	1.368999965416151E+000	-9.8687345E-001	-9.8694181E-001	-1.677736178833290E-001	1.6558279E-004
2	1	0	0	1.869599952769931E+000	-9.8186719E-001	-9.8192400E-001	-1.669905900795705E-001	1.6397207E-004
2	1	0	0	2.370399940118659E+000	-9.7685957E-001	-9.7690159E-001	-1.660479570405091E-001	1.6221251E-004
2	1	0	1	2.870999927472440E+000	-9.7185338E-001	-9.7191107E-001	-1.645627516241119E-001	1.5994036E-004
2	1	0	0	3.371599914826220E+000	-9.6684760E-001	-9.6689957E-001	-1.630938057543191E-001	1.5769534E-004
2	1	0	1	3.872199902180000E+000	-9.6184134E-001	-9.6187925E-001	-1.612957265406398E-001	1.5514702E-004
2	1	0	0	4.372799889533781E+000	-9.5683539E-001	-9.5688009E-001	-1.596422736496574E-001	1.5275851E-004
2	1	0	1	4.873399876887561E+000	-9.5182937E-001	-9.5186990E-001	-1.574733730847049E-001	1.4989417E-004
2	1	0	0	5.373999864241341E+000	-9.4682324E-001	-9.4687492E-001	-1.554890938714166E-001	1.4722873E-004
2	1	0	1	5.874699851592595E+000	-9.4181645E-001	-9.4188565E-001	-1.539802933774586E-001	1.4503182E-004
2	1	0	1	6.375399838943849E+000	-9.3680936E-001	-9.3686211E-001	-1.520782012560420E-001	1.4247630E-004
2	1	0	0	6.875999826297630E+000	-9.3180364E-001	-9.3186212E-001	-1.500340347749356E-001	1.3981103E-004
2	1	0	1	7.376599813651410E+000	-9.2679727E-001	-9.2685181E-001	-1.480828454289957E-001	1.3725086E-004
2	1	0	0	7.877199801005190E+000	-9.2179161E-001	-9.2184657E-001	-1.458963982484174E-001	1.3449410E-004
2	1	0	1	8.377799788358971E+000	-9.1678536E-001	-9.1683298E-001	-1.442660887605336E-001	1.3226790E-004
2	1	0	0	8.878399775712751E+000	-9.1177940E-001	-9.1183549E-001	-1.425326487458440E-001	1.2996633E-004
2	1	0	1	9.379099763064005E+000	-9.0677243E-001	-9.0682483E-001	-1.407454208468124E-001	1.2763144E-004
2	1	0	1	9.879799750415259E+000	-9.0176523E-001	-9.0181285E-001	-1.386281428080185E-001	1.2501664E-004
2	1	0	0	1.038039973776904E+001	-8.9675951E-001	-8.9680839E-001	-1.368887433087477E-001	1.2276297E-004
2	1	0	1	1.088099972512282E+001	-8.9175332E-001	-8.9179724E-001	-1.351692205834221E-001	1.2054354E-004
2	1	0	0	1.138159971247660E+001	-8.8674748E-001	-8.8680172E-001	-1.332116572204279E-001	1.1813232E-004
2	1	0	1	1.188219969983038E+001	-8.8174117E-001	-8.8178277E-001	-1.313526944225232E-001	1.1582454E-004
2	1	0	0	1.238279968718416E+001	-8.7673545E-001	-8.7678176E-001	-1.291390196080858E-001	1.1322674E-004
2	1	0	1	1.288339967453794E+001	-8.7172920E-001	-8.7180930E-001	-1.270355855223850E-001	1.1075081E-004
2	1	0	0	1.338409966188920E+001	-8.6672223E-001	-8.6679828E-001	-1.249122788967620E-001	1.0827375E-004
2	1	0	0	1.388479964924045E+001	-8.6171544E-001	-8.6177397E-001	-1.232132264666197E-001	1.0618195E-004
2	1	0	1	1.438539963659423E+001	-8.5670918E-001	-8.5677814E-001	-1.217001450887302E-001	1.0427002E-004
2	1	0	0	1.488599962394801E+001	-8.5170346E-001	-8.5177547E-001	-1.199069349101749E-001	1.0213379E-004
2	1	0	1	1.538659961130179E+001	-8.4669721E-001	-8.4676027E-001	-1.179412971019202E-001	9.9868004E-005
2	1	0	0	1.588719959865557E+001	-8.4169143E-001	-8.4174687E-001	-1.159336478263084E-001	9.7586788E-005
2	1	0	1	1.638779958600935E+001	-8.3668524E-001	-8.3675128E-001	-1.140029571061406E-001	9.5392119E-005
2	1	0	0	1.688849957336060E+001	-8.3167821E-001	-8.3176363E-001	-1.123817883630940E-001	9.3475086E-005
2	1	0	0	1.738919956071186E+001	-8.2667124E-001	-8.2674617E-001	-1.103771506941684E-001	9.1253889E-005
2	1	0	1	1.788979954806564E+001	-8.2166523E-001	-8.2173198E-001	-1.087066022325313E-001	8.9327696E-005
2	1	0	0	1.839039953541942E+001	-8.1665933E-001	-8.1673747E-001	-1.069103412788207E-001	8.7317683E-005
2	1	0	1	1.889099952277320E+001	-8.1165314E-001	-8.1172246E-001	-1.054229130408089E-001	8.5574145E-005
2	1	0	0	1.939159951012698E+001	-8.0664742E-001	-8.0669951E-001	-1.034851084131515E-001	8.3481384E-005
2	1	0	1	1.989219949748076E+001	-8.0164111E-001	-8.0169952E-001	-1.016858424569502E-001	8.1521488E-005
2	1	0	0	2.039279948483454E+001	-7.9663533E-001	-7.9670882E-001	-1.003745731676072E-001	7.9969308E-005
2	1	0	1	2.089349947218579E+001	-7.9162818E-001	-7.9168469E-001	-9.851262792217086E-002	7.7990939E-005
2	1	0	1	2.139419945953705E+001	-7.8662109E-001	-7.8668547E-001	-9.676236754116063E-002	7.6121549E-005
2	1	0	0	2.189479944689083E+001	-7.8161532E-001	-7.8166932E-001	-9.514285195565764E-002	7.4370248E-005
2	1	0	1	2.239539943424461E+001	-7.7660906E-001	-7.7666134E-001	-9.348506905863552E-002	7.2606235E-005
2	1	0	0	2.289599942159839E+001	-7.7160329E-001	-7.7166259E-001	-9.194222978120670E-002	7.0948379E-005
2	1	0	1	2.339659940895217E+001	-7.6659709E-001	-7.6665497E-001	-9.023813653230151E-002	6.9181515E-005
2	1	0	0	2.389719939630595E+001	-7.6159120E-001	-7.6164538E-001	-8.864716126289585E-002	6.7517700E-005
2	1	0	1	2.439789938365720E+001	-7.5658411E-001	-7.5663918E-001	-8.697602075731936E-002	6.5809465E-005
2	1	0	1	2.489859937100846E+001	-7.5157720E-001	-7.5160843E-001	-8.540619168369191E-002	6.4192012E-005
2	1	0	0	2.539919935836224E+001	-7.4657118E-001	-7.4662292E-001	-8.367867426281905E-002	6.2476414E-005
2	1	0	1	2.589979934571602E+001	-7.4156499E-001	-7.4160630E-001	-8.207158191814723E-002	6.0864801E-005
2	1	0	0	2.640039933306980E+001	-7.3655933E-001	-7.3659396E-001	-8.055722694896918E-002	5.9337966E-005
2	1	0	1	2.690099932042358E+001	-7.3155302E-001	-7.3158842E-001	-7.913606247815186E-002	5.7895028E-005
2	1	0	0	2.740159930777736E+001	-7.2654718E-001	-7.2658694E-001	-7.775069340680729E-002	5.6492638E-005
2	1	0	1	2.790219929513114E+001	-7.2154105E-001	-7.2158402E-001	-7.616034570989605E-002	5.4956090E-005
2	1	0	0	2.840289928248239E+001	-7.1653420E-001	-7.1657789E-001	-7.480111442391002E-002	5.3600823E-005
2	1	0	0	2.890359926983365E+001	-7.1152705E-001	-7.1157753E-001	-7.334306445689220E-002	5.2189276E-005
2	1	0	1	2.940419925718743E+001	-7.0652097E-001	-7.0656544E-001	-7.173649772628710E-002	5.0686529E-005
2	1	0	0	2.990479924454121E+001	-7.0151508E-001	-7.0156837E-001	-7.011322655872726E-002	4.9189221E-005
2	1	0	1	3.040539923189499E+001	-6.9650906E-001	-6.9655520E-001	-6.847662373089980E-002	4.7697748E-005
2	1	0	0	3.090599921924877E+001	-6.9150311E-001	-6.9154960E-001	-6.691644158026888E-002	4.6276040E-005
2	1	0	1	3.140659920660255E+001	-6.8649697E-001	-6.8654060E-001	-6.552444718167250E-002	4.4985194E-005
2	1	0	0	3.190729919395380E+001	-6.8149018E-001	-6.8153757E-001	-6.413388470307679E-002	4.3709653E-005
2	1	0	0	3.240799918130506E+001	-6.7648298E-001	-6.7654562E-001	-6.298771410864668E-002	4.2614061E-005
2	1	0	1	3.290859916865884E+001	-6.7147708E-001	-6.7153287E-001	-6.200086601524601E-002	4.1635620E-005
2	1	0	0	3.340919915601262E+001	-6.6647094E-001	-6.6652298E-001	-6.078782862532406E-002	4.0516486E-005
2	1	0	1	3.390979914336640E+001	-6.6146487E-001	-6.6152501E-001	-5.937930172224792E-002	3.9280894E-005
2	1	0	0	3.441039913072018E+001	-6.5645903E-001	-6.5651369E-001	-5.806744437503455E-002	3.8122071E-005
2	1	0	1	3.491099911807396E+001	-6.5145296E-001	-6.5151191E-001	-5.690659955047938E-002	3.7075326E-005
2	1	0	0	3.541159910542774E+001	-6.4644694E-001	-6.4650255E-001	-5.548073299821971E-002	3.5868437E-005
2	1	0	0	3.591239909277647E+001	-6.4143896E-001	-6.4149570E-001	-5.439041090341384E-002	3.4891214E-005
2	1	0	1	3.641299908013025E+001	-6.3643306E-001	-6.3651854E-001	-5.348484130689396E-002	3.4044093E-005
2	1	0	0	3.691359906748403E+001	-6.3142681E-001	-6.3150680E-001	-5.209400634694883E-002	3.2897718E-005
2	1	0	1	3.741419905483781E+001	-6.2642086E-001	-6.2649840E-001	-5.090226259143671E-002	3.1890188E-005
2	1	0	0	3.791479904219159E+001	-6.2141490E-001	-6.2148643E-001	-4.953518185994527E-002	3.0785443E-005
2	1	0	1	3.843299902910076E+001	-6.1623281E-001	-6.1631370E-001	-4.832727525848196E-002	2.9784762E-005
2	1	0	0	3.895119901600992E+001	-6.1105096E-001	-6.1113220E-001	-4.726505175322293E-002	2.8885195E-005
2	1	0	1	3.945179900336370E+001	-6.0604495E-001	-6.0612303E-001	-4.632535151163525E-002	2.8078863E-005
2	1	0	0	3.995239899071748E+001	-6.0103893E-001	-6.0110563E-001	-4.526872362194856E-002	2.7211285E-005
2	1	0	1	4.045299897807126E+001	-5.9603280E-001	-5.9611279E-001	-4.418111609364088E-002	2.6336927E-005
2	1	0	0	4.095359896542504E+001	-5.9102684E-001	-5.9110063E-001	-4.304975796931187E-002	2.5446740E-005
2	1	0	1	4.145419895277882E+001	-5.8602071E-001	-5.8608973E-001	-4.224450643480560E-002	2.4759071E-005
2	1	0	0	4.195479894013260E+001	-5.8101463E-001	-5.8106369E-001	-4.117581546924992E-002	2.3925772E-005
2	1	0	1	4.245549892748386E+001	-5.7600766E-001	-5.7609427E-001	-4.033297987832823E-002	2.3235598E-005
2	1	0	1	4.295619891483511E+001	-5.7100075E-001	-5.7107109E-001	-3.943839141095951E-002	2.2522125E-005
2	1	0	0	4.345679890218889E+001	-5.6599486E-001	-5.6606156E-001	-3.843079746484068E-002	2.1754196E-005
2	1	0	1	4.395739888954267E+001	-5.6098872E-001	-5.6107593E-001	-3.750930852124745E-002	2.1045569E-005
2	1	0	0	4.445799887689645E+001	-5.5598277E-001	-5.5607176E-001	-3.670233658898536E-002	2.0409132E-005
2	1	0	1	4.495859886425023E+001	-5.5097669E-001	-5.5105799E-001	-3.606971055205305E-002	1.9876503E-005
2	1	0	0	4.545919885160401E+001	-5.4597062E-001	-5.4603863E-001	-3.529197104669313E-002	1.9270779E-005
2	1	0	1	4.595989883895527E+001	-5.4096359E-001	-5.4102361E-001	-3.433603079157868E-002	1.8576604E-005
2	1	0	1	4.646059882630652E+001	-5.3595662E-001	-5.3603196E-001	-3.378902320467780E-002	1.8111996E-005
2	1	0	0	4.696119881366030E+001	-5.3095067E-001	-5.3102386E-001	-3.291145429054299E-002	1.7476768E-005
2	1	0	1	4.746179880101408E+001	-5.2594471E-001	-5.2601355E-001	-3.202435907238410E-002	1.6845246E-005
2	1	0	0	4.796239878836786E+001	-5.2093863E-001	-5.2099288E-001	-3.132025925016335E-002	1.6317632E-005
2	1	0	1	4.846299877572164E+001	-5.1593262E-001	-5.1601118E-001	-3.073359502301953E-002	1.5858879E-005
2	1	0	0	4.896359876307542E+001	-5.1092660E-001	-5.1099437E-001	-2.989083964543471E-002	1.5274050E-005
2	1	0	1	4.946419875042920E+001	-5.0592053E-001	-5.0598907E-001	-2.924559935492865E-002	1.4797954E-005
2	1	0	0	4.996489873778046E+001	-5.0091350E-001	-5.0097412E-001	-2.851029627743087E-002	1.4282920E-005
2	1	0	0	5.046559872513171E+001	-4.9590644E-001	-4.9598256E-001	-2.779136787478673E-002	1.3784033E-005
2	1	0	1	5.096619871248549E+001	-4.9090055E-001	-4.9096984E-001	-2.713241284088883E-002	1.3321196E-005
2	1	0	0	5.146679869983927E+001	-4.8589453E-001	-4.8595700E-001	-2.653476204608196E-002	1.2894753E-005
2	1	0	1	5.196739868719305E+001	-4.8088855E-001	-4.8093814E-001	-2.593046177899910E-002	1.2470948E-005
2	1	0	0	5.246799867454683E+001	-4.7588253E-001	-4.7595495E-001	-2.530653874934202E-002	1.2044772E-005
2	1	0	1	5.296859866190061E+001	-4.7087654E-001	-4.7091594E-001	-2.463311051231631E-002	1.1600125E-005
2	1	0	0	5.346929864925187E+001	-4.6586949E-001	-4.6591902E-001	-2.397862688945979E-002	1.1172098E-005
2	1	0	0	5.396999863660312E+001	-4.6086249E-001	-4.6090785E-001	-2.356834830904986E-002	1.0862836E-005
2	1	0	1	5.447059862395690E+001	-4.5585647E-001	-4.5591086E-001	-2.296111272981571E-002	1.0468220E-005
2	1	0	0	5.497119861131068E+001	-4.5085040E-001	-4.5090353E-001	-2.241399373349118E-002	1.0106549E-005
2	1	0	1	5.547179859866446E+001	-4.4584450E-001	-4.4588917E-001	-2.198017767718484E-002	9.8007231E-006
2	1	0	0	5.597239858601824E+001	-4.4083858E-001	-4.4089726E-001	-2.143822306764104E-002	9.4520537E-006
2	1	0	1	5.647299857337202E+001	-4.3583247E-001	-4.3588522E-001	-2.050980359019251E-002	8.9399200E-006
2	1	0	0	5.697359856072580E+001	-4.3082649E-001	-4.3086153E-001	-2.017392090427977E-002	8.6921664E-006
2	1	0	1	5.747429854807706E+001	-4.2581952E-001	-4.2586586E-001	-1.977319534870342E-002	8.4207286E-006
2	1	0	1	5.797499853542831E+001	-4.2081246E-001	-4.2086020E-001	-1.927543424596370E-002	8.1122635E-006
2	1	0	0	5.847559852278209E+001	-4.1580638E-001	-4.1586202E-001	-1.862681756940215E-002	7.7461864E-006
2	1	0	1	5.897619851013587E+001	-4.1080040E-001	-4.1084588E-001	-1.829619243848896E-002	7.5169150E-006
2	1	0	0	5.947679849748965E+001	-4.0579444E-001	-4.0584853E-001	-1.803941108858091E-002	7.3212686E-006
2	1	0	1	5.997739848484343E+001	-4.0078843E-001	-4.0084681E-001	-1.765151599287462E-002	7.0755536E-006
2	1	0	0	6.047799847219721E+001	-3.9578244E-001	-3.9584273E-001	-1.714485663554446E-002	6.7866667E-006
2	1	0	1	6.097869845954847E+001	-3.9077547E-001	-3.9082271E-001	-1.679285801668051E-002	6.5630302E-006
2	1	0	1	6.147939844689972E+001	-3.8576844E-001	-3.8583025E-001	-1.638465987901955E-002	6.3216976E-006
2	1	0	0	6.197999843425350E+001	-3.8076240E-001	-3.8081187E-001	-1.592580961798439E-002	6.0647371E-006
2	1	0	1	6.248059842160728E+001	-3.7575635E-001	-3.7581098E-001	-1.541082483361560E-002	5.7915572E-006
2	1	0	0	6.298119840896106E+001	-3.7075031E-001	-3.7079719E-001	-1.506045505167089E-002	5.5843743E-006
2	1	0	1	6.348179839631484E+001	-3.6574432E-001	-3.6579657E-001	-1.480841549135222E-002	5.4168677E-006
2	1	0	0	6.398239838366862E+001	-3.6073837E-001	-3.6080715E-001	-1.449517036343961E-002	5.2299611E-006
2	1	0	1	6.448299837102240E+001	-3.5573238E-001	-3.5579312E-001	-1.411582213229481E-002	5.0223125E-006
2	1	0	1	6.498379835837113E+001	-3.5072443E-001	-3.5076910E-001	-1.369244851904039E-002	4.8028878E-006
2	1	0	0	6.548439834572491E+001	-3.4571838E-001	-3.4576261E-001	-1.342124300253187E-002	4.6405639E-006
2	1	0	1	6.598499833307869E+001	-3.4071237E-001	-3.4074777E-001	-1.310986407096612E-002	4.4671569E-006
2	1	0	0	6.648559832043247E+001	-3.3570626E-001	-3.3573890E-001	-1.278728744611671E-002	4.2931897E-006
2	1	0	1	6.698619830778625E+001	-3.3070028E-001	-3.3074769E-001	-1.242499618858196E-002	4.1095386E-006
2	1	0	0	6.748679829514003E+001	-3.2569429E-001	-3.2574081E-001	-1.218887087723808E-002	3.9704128E-006
2	1	0	1	6.798739828249381E+001	-3.2068828E-001	-3.2076547E-001	-1.196871382027481E-002	3.8391499E-006
2	1	0	0	6.848809826984507E+001	-3.1568128E-001	-3.1574094E-001	-1.170921338892220E-002	3.6970780E-006
2	1	0	0	6.898879825719632E+001	-3.1067431E-001	-3.1073219E-001	-1.145703351144656E-002	3.5600690E-006
2	1	0	1	6.948939824455010E+001	-3.0566829E-001	-3.0572364E-001	-1.110441112411895E-002	3.3948809E-006
2	1	0	0	6.998999823190388E+001	-3.0066228E-001	-3.0073160E-001	-1.068004558371866E-002	3.2118271E-006
2	1	0	1	7.049059821925766E+001	-2.9565620E-001	-2.9570481E-001	-1.024794004135304E-002	3.0303652E-006
2	1	0	0	7.099119820661144E+001	-2.9065022E-001	-2.9070362E-001	-1.007993066713726E-002	2.9302723E-006
2	1	0	1	7.149179819396522E+001	-2.8564411E-001	-2.8568056E-001	-9.998899174462880E-003	2.8564912E-006
2	1	0	0	7.199249818131648E+001	-2.8063715E-001	-2.8069368E-001	-9.667359123573305E-003	2.7135666E-006
2	1	0	0	7.249319816866773E+001	-2.7563018E-001	-2.7565518E-001	-9.357508426259931E-003	2.5794457E-006
2	1	0	1	7.299379815602151E+001	-2.7062416E-001	-2.7067247E-001	-9.169831228059921E-003	2.4820208E-006
2	1	0	0	7.349439814337529E+001	-2.6561815E-001	-2.6567680E-001	-8.942178636979201E-003	2.3757293E-006
2	1	0	1	7.399499813072907E+001	-2.6061216E-001	-2.6066834E-001	-8.713717470417909E-003	2.2713903E-006
2	1	0	0	7.449559811808285E+001	-2.5560606E-001	-2.5563505E-001	-8.520635312527641E-003	2.1781730E-006
2	1	0	1	7.499619810543663E+001	-2.5060007E-001	-2.5063574E-001	-8.250194776060024E-003	2.0677937E-006
2	1	0	0	7.549679809279041E+001	-2.4559405E-001	-2.4566638E-001	-7.986541596146535E-003	1.9620247E-006
2	1	0	1	7.599749808014167E+001	-2.4058709E-001	-2.4067008E-001	-7.746014195484173E-003	1.8642339E-006
2	1	0	1	7.649819806749292E+001	-2.3558007E-001	-2.3565224E-001	-7.538480261452190E-003	1.7764597E-006
2	1	0	0	7.699879805484670E+001	-2.3057412E-001	-2.3065445E-001	-7.265325937856934E-003	1.6757798E-006
2	1	0	1	7.749939804220048E+001	-2.2556809E-001	-2.2564431E-001	-7.094902938540846E-003	1.6009244E-006
2	1	0	0	7.799999802955426E+001	-2.2056204E-001	-2.2063088E-001	-6.902266467792503E-003	1.5228532E-006
2	1	0	1	7.850059801690804E+001	-2.1555604E-001	-2.1562579E-001	-6.821602088520545E-003	1.4709134E-006
2	1	0	0	7.900119800426182E+001	-2.1055004E-001	-2.1063425E-001	-6.583141874444406E-003	1.3866352E-006
2	1	0	1	7.950189799161308E+001	-2.0554303E-001	-2.0561874E-001	-6.435534280684579E-003	1.3232665E-006
2	1	0	1	8.000259797896433E+001	-2.0053604E-001	-2.0060913E-001	-6.226637513767765E-003	1.2491204E-006
2	1	0	0	8.050319796631811E+001	-1.9553004E-001	-1.9559570E-001	-6.066380449406571E-003	1.1865579E-006
2	1	0	1	8.100379795367189E+001	-1.9052403E-001	-1.9058244E-001	-5.805492056094888E-003	1.1064249E-006
2	1	0	0	8.150439794102567E+001	-1.8551801E-001	-1.8558659E-001	-5.555118665629966E-003	1.0309556E-006
2	1	0	1	8.200499792837945E+001	-1.8051198E-001	-1.8057264E-001	-5.369233593242859E-003	9.6953670E-007
2	1	0	0	8.250559791573323E+001	-1.7550600E-001	-1.7556824E-001	-5.206824293099510E-003	9.1415296E-007
2	1	0	1	8.300619790308701E+001	-1.7049994E-001	-1.7056020E-001	-5.024657458462242E-003	8.5700657E-007
2	1	0	0	8.352439788999618E+001	-1.6531806E-001	-1.6536078E-001	-4.882647859783346E-003	8.0739846E-007
2	1	0	1	8.404259787690535E+001	-1.6013600E-001	-1.6018675E-001	-4.583280185660316E-003	7.3418079E-007
2	1	0	0	8.454319786425913E+001	-1.5512994E-001	-1.5517427E-001	-4.341107578463538E-003	6.7362822E-007
2	1	0	1	8.504379785161291E+001	-1.5012389E-001	-1.5016805E-001	-4.169875030656953E-003	6.2618199E-007
2	1	0	0	8.554439783896669E+001	-1.4511789E-001	-1.4517282E-001	-4.045325504468095E-003	5.8727130E-007
2	1	0	1	8.604499782632047E+001	-1.4011189E-001	-1.4013867E-001	-3.851630254474853E-003	5.3976237E-007
2	1	0	1	8.654579781366920E+001	-1.3510390E-001	-1.3512863E-001	-3.697562820397772E-003	4.9964660E-007
2	1	0	0	8.704639780102298E+001	-1.3009787E-001	-1.3013361E-001	-3.518919231687211E-003	4.5792967E-007
2	1	0	1	8.754699778837676E+001	-1.2509187E-001	-1.2513316E-001	-3.328789316712738E-003	4.1654192E-007
2	1	0	0	8.804759777573054E+001	-1.2008585E-001	-1.2011848E-001	-3.184049109423312E-003	3.8246316E-007
2	1	0	1	8.854819776308432E+001	-1.1507982E-001	-1.1510994E-001	-3.060070543283559E-003	3.5224454E-007
2	1	0	0	8.904879775043810E+001	-1.1007381E-001	-1.1011447E-001	-2.892204368143962E-003	3.1847355E-007
2	1	0	1	8.954939773779188E+001	-1.0506783E-001	-1.0510162E-001	-2.794950639235266E-003	2.9375383E-007
2	1	0	0	9.005009772514313E+001	-1.0006081E-001	-1.0009062E-001	-2.640351771090385E-003	2.6427446E-007
2	1	0	0	9.055079771249439E+001	-9.5053829E-002	-9.5072933E-002	-2.486043823081166E-003	2.3635548E-007
2	1	0	1	9.105139769984817E+001	-9.0047814E-002	-9.0100326E-002	-2.371016527900484E-003	2.1362936E-007
2	1	0	0	9.155199768720195E+001	-8.5041799E-002	-8.5085526E-002	-2.194565710510735E-003	1.8672579E-007
2	1	0	1	9.205259767455573E+001	-8.0035761E-002	-8.0062792E-002	-2.082071872043942E-003	1.6669648E-007
2	1	0	0	9.255319766190951E+001	-7.5029768E-002	-7.5066179E-002	-1.926883026850984E-003	1.4464375E-007
2	1	0	1	9.305379764926329E+001	-7.0023745E-002	-7.0066921E-002	-1.769756416526710E-003	1.2400139E-007
2	1	0	0	9.355449763661454E+001	-6.5016709E-002	-6.5063216E-002	-1.637336995787303E-003	1.0653041E-007
2	1	0	0	9.405519762396580E+001	-6.0009748E-002	-6.0044486E-002	-1.507694268310766E-003	9.0528729E-008
2	1	0	1	9.455579761131958E+001	-5.5003755E-002	-5.5053104E-002	-1.366387039878954E-003	7.5223845E-008
2	1	0	0	9.505639759867336E+001	-4.9997728E-002	-5.0040364E-002	-1.230424371526886E-003	6.1570887E-008
2	1	0	1	9.555699758602714E+001	-4.4991706E-002	-4.5028590E-002	-1.078469841879214E-003	4.8561976E-008
2	1	0	0	9.605759757338092E+001	-3.9985694E-002	-4.0025689E-002	-9.481289479858195E-004	3.7949516E-008
2	1	0	1	9.655819756073470E+001	-3.4979668E-002	-3.5029616E-002	-8.107967575442512E-004	2.8401899E-008
2	1	0	0	9.705879754808848E+001	-2.9973673E-002	-3.0021522E-002	-6.770391111997655E-004	2.0325745E-008
2	1	0	1	9.755949753543973E+001	-2.4966713E-002	-2.5017682E-002	-5.473295355615752E-004	1.3692916E-008
2	1	0	1	9.806019752279099E+001	-1.9959686E-002	-1.9999428E-002	-4.261922149929831E-004	8.5236005E-009
2	1	0	0	9.856079751014477E+001	-1.4953666E-002	-1.5010306E-002	-3.073722677733506E-004	4.6137516E-009
2	1	0	1	9.906139749749855E+001	-9.9476734E-003	-1.0010276E-002	-1.872906699414913E-004	1.8748314E-009
2	1	0	0	9.956199748485233E+001	-4.9416372E-003	-4.9933014E-003	-6.404191669339766E-005	3.1978059E-010
2	1	0	1	1.000625974722061E+002	6.4607942E-005	1.8245320E-005	5.801144471569890E-005	1.0584374E-012
2	1	0	0	1.005631974595599E+002	5.0703767E-003	5.0255992E-003	1.785952275242071E-004	8.9754804E-010
2	1	0	1	1.010638974469111E+002	1.0077361E-002	1.0027439E-002	2.938759786116968E-004	2.9468235E-009
2	1	0	1	1.015645974342624E+002	1.5084326E-002	1.5033956E-002	4.127545152518499E-004	6.2053331E-009
2	1	0	0	1.020651974216162E+002	2.0090295E-002	2.0047586E-002	5.348237949624876E-004	1.0721926E-008
2	1	0	1	1.025657974089700E+002	2.5096292E-002	2.5060354E-002	6.506245134265653E-004	1.6304881E-008
2	1	0	0	1.030663973963237E+002	3.0102314E-002	3.0055786E-002	7.694520530873473E-004	2.3126486E-008
2	1	0	1	1.035669973836775E+002	3.5108302E-002	3.5063993E-002	8.838670647681943E-004	3.0991909E-008
2	1	0	0	1.040675973710313E+002	4.0114272E-002	4.0080968E-002	1.001376614811960E-003	4.0136143E-008
2	1	0	1	1.045681973583851E+002	4.5120288E-002	4.5079969E-002	1.092162509803516E-003	4.9234654E-008
2	1	0	0	1.050688973457363E+002	5.0127257E-002	5.0084669E-002	1.214920706202816E-003	6.0848905E-008
2	1	0	0	1.055695973330876E+002	5.5134244E-002	5.5088233E-002	1.322184447718497E-003	7.2836805E-008
2	1	0	1	1.060701973204414E+002	6.0140222E-002	6.0103282E-002	1.407373016270520E-003	8.4587739E-008
2	1	0	0	1.065707973077951E+002	6.5146238E-002	6.5113649E-002	1.527845757942115E-003	9.9483614E-008
2	1	0	1	1.070713972951489E+002	7.0152238E-002	7.0115462E-002	1.631692053654531E-003	1.1440684E-007
2	1	0	0	1.075719972825027E+002	7.5158186E-002	7.5115785E-002	1.752090254502750E-003	1.3160964E-007
2	1	0	1	1.080725972698565E+002	8.0164209E-002	8.0137134E-002	1.829478180059682E-003	1.4660914E-007
2	1	0	0	1.085732972572077E+002	8.5171185E-002	8.5140750E-002	1.931700821863985E-003	1.6446646E-007
2	1	0	0	1.090739972445590E+002	9.0178110E-002	9.0143278E-002	2.025096475232756E-003	1.8254883E-007
2	1	0	1	1.095745972319128E+002	9.5184147E-002	9.5135674E-002	2.105754490968656E-003	2.0033237E-007
2	1	0	0	1.099399972226820E+002	9.8838277E-002	9.8804228E-002	2.196210976636311E-003	2.1699493E-007
2	1	0	0	1.100537972198072E+002	1.0001492E-001	9.9970803E-002	2.189105415406328E-003	2.1884662E-007