EC-Lab ASCII FILE
Nb header lines : 55                          

I-V Characterization

Run on channel : 1 (SN 6514)
User : 
CE vs. WE compliance from -10 V to 10 V
Electrode connection : standard
Ewe ctrl range : min = -1.10 V, max = 0.20 V
Safety Limits :
	Do not start on E overload
Acquisition started on : 06/15/2016 19:44:07
Saved on :
	File : B125-G54-UN-G-D1GB-C16 BW 100mVs dark_C01.mpr
	Directory : E:\EC-Lab measurements\B125-G54-UN-G-D1GB\
	Host : 10.0.2.15
Device : VSP (SN 0295)
Address : USB
EC-Lab for windows v11.01 (software)
Internet server v11.00 (firmware)
Command interpretor v11.00 (firmware)
Electrode material : 
Initial state : 
Electrolyte : 
Comments : 
Electrode surface area : 0.001 cm²
Characteristic mass : 0.001 g
Equivalent Weight : 0.000 g/eq.
Density : 0.000 g/cm3
tR (h:m:s)          0:00:0.0000         
dER/dt (mV/h)       0.0                 
dER (mV)            0                   
dtR (s)             0.0000              
dE/dt               100.000             
dE/dt unit          mV/s                
Ei (V)              -1.000              
vs.                 Ref                 
EL (V)              0.100               
vs.                 Ref                 
record              <I>                 
dI                  0.000               
unit dI             µA                  
tI (s)              0.1000              
step percent        100                 
N                   100                 
E range min (V)     -1.100              
E range max (V)     0.200               
I Range             Auto                
I Range min         Unset               
I Range max         Unset               
I Range init        Unset               
Bandwidth           5                   

mode	ox/red	error	control changes	time/s	control/V	Ewe/V	<I>/mA	P/W
2	1	0	1	1.103999972110614E-001	-9.9401397E-001	-9.9411750E-001	-9.902010262012482E-001	9.8437618E-004
2	1	0	0	1.357999965694034E-001	-9.9148411E-001	-9.9151355E-001	-9.941565671573152E-001	9.8571973E-004
2	1	0	0	1.857999953062972E-001	-9.8648173E-001	-9.8653120E-001	-9.941748627586584E-001	9.8078453E-004
2	1	0	1	2.358999940406648E-001	-9.8147583E-001	-9.8152345E-001	-9.887411751128763E-001	9.7047264E-004
2	1	0	1	2.859999927750323E-001	-9.7646338E-001	-9.7650814E-001	-9.802164955775536E-001	9.5718936E-004
2	1	0	1	3.359999915119261E-001	-9.7146332E-001	-9.7150522E-001	-9.700427951224757E-001	9.4240165E-004
2	1	0	1	3.859999902488198E-001	-9.6646512E-001	-9.6649867E-001	-9.590425750034619E-001	9.2691340E-004
2	1	0	0	4.361999889806611E-001	-9.6144265E-001	-9.6147764E-001	-9.468068696876948E-001	9.1033365E-004
2	1	0	0	4.861999877175549E-001	-9.5644403E-001	-9.5645046E-001	-9.341536373058172E-001	8.9347170E-004
2	1	0	0	5.361999864544487E-001	-9.5144433E-001	-9.5147640E-001	-9.210792831774093E-001	8.7638519E-004
2	1	0	1	5.862999851888162E-001	-9.4643182E-001	-9.4647306E-001	-9.075048241912498E-001	8.5892889E-004
2	1	0	1	6.363999839231838E-001	-9.4142586E-001	-9.4146121E-001	-8.933488184142271E-001	8.4105326E-004
2	1	0	1	6.863999826600775E-001	-9.3642360E-001	-9.3646443E-001	-8.793862092659772E-001	8.2351390E-004
2	1	0	0	7.364999813944451E-001	-9.3141323E-001	-9.3146729E-001	-8.654487188983842E-001	8.0613716E-004
2	1	0	0	7.865999801288126E-001	-9.2640460E-001	-9.2645234E-001	-8.512845319296325E-001	7.8867457E-004
2	1	0	0	8.365999788657064E-001	-9.2140245E-001	-9.2144603E-001	-8.370655906725784E-001	7.7131076E-004
2	1	0	1	8.866999776000739E-001	-9.1639447E-001	-9.1642761E-001	-8.225636486260541E-001	7.5382006E-004
2	1	0	1	9.367999763344415E-001	-9.1138405E-001	-9.1143745E-001	-8.079796594643209E-001	7.3642289E-004
2	1	0	1	9.867999750713352E-001	-9.0638232E-001	-9.0643108E-001	-7.933391033429515E-001	7.1910722E-004
2	1	0	1	1.036799973808229E+000	-9.0138543E-001	-9.0142626E-001	-7.792267079648925E-001	7.0241542E-004
2	1	0	0	1.086999972540070E+000	-8.9636302E-001	-8.9639765E-001	-7.645783348378759E-001	6.8536622E-004
2	1	0	0	1.136999971276964E+000	-8.9136302E-001	-8.9140338E-001	-7.504701631945269E-001	6.6897162E-004
2	1	0	0	1.186999970013858E+000	-8.8636494E-001	-8.8641095E-001	-7.360778697772616E-001	6.5246748E-004
2	1	0	1	1.237199968745699E+000	-8.8134217E-001	-8.8138151E-001	-7.219231127631692E-001	6.3628971E-004
2	1	0	1	1.287199967482593E+000	-8.7634486E-001	-8.7640035E-001	-7.078275773586498E-001	6.2034035E-004
2	1	0	1	1.337199966219487E+000	-8.7134379E-001	-8.7140399E-001	-6.940691837645208E-001	6.0481468E-004
2	1	0	0	1.387299964953854E+000	-8.6633211E-001	-8.6639321E-001	-6.800173299638992E-001	5.8916240E-004
2	1	0	0	1.437399963688222E+000	-8.6132509E-001	-8.6137950E-001	-6.661559035854339E-001	5.7381304E-004
2	1	0	0	1.487399962425116E+000	-8.5632306E-001	-8.5638511E-001	-6.524797319966495E-001	5.5877393E-004
2	1	0	1	1.537499961159483E+000	-8.5131323E-001	-8.5137033E-001	-6.392105540880184E-001	5.4420490E-004
2	1	0	1	1.587599959893851E+000	-8.4630477E-001	-8.4636337E-001	-6.257407649896409E-001	5.2960403E-004
2	1	0	1	1.637599958630744E+000	-8.4130228E-001	-8.4134156E-001	-6.124699055328211E-001	5.1529636E-004
2	1	0	0	1.687699957365112E+000	-8.3629465E-001	-8.3633828E-001	-5.994237198672776E-001	5.0132099E-004
2	1	0	0	1.737799956099479E+000	-8.3128345E-001	-8.3134848E-001	-5.865320396141360E-001	4.8761253E-004
2	1	0	0	1.787799954836373E+000	-8.2628196E-001	-8.2635027E-001	-5.735696586072880E-001	4.7396944E-004
2	1	0	0	1.837799953573267E+000	-8.2128513E-001	-8.2133061E-001	-5.608539514319162E-001	4.6064652E-004
2	1	0	1	1.887999952305108E+000	-8.1626278E-001	-8.1630713E-001	-5.484692986435800E-001	4.4771939E-004
2	1	0	1	1.937999951042002E+000	-8.1126356E-001	-8.1131685E-001	-5.364131387089910E-001	4.3520101E-004
2	1	0	1	1.987999949778896E+000	-8.0626434E-001	-8.0631638E-001	-5.244821833187725E-001	4.2289856E-004
2	1	0	0	2.038199948510737E+000	-8.0124211E-001	-8.0128002E-001	-5.126744445996261E-001	4.1079579E-004
2	1	0	0	2.088199947247631E+000	-7.9624444E-001	-7.9629672E-001	-5.008950905169556E-001	3.9886113E-004
2	1	0	0	2.138199945984525E+000	-7.9124361E-001	-7.9127771E-001	-4.891621516083227E-001	3.8706310E-004
2	1	0	1	2.188299944718892E+000	-7.8623211E-001	-7.8628683E-001	-4.778378844820685E-001	3.7571765E-004
2	1	0	1	2.238399943453260E+000	-7.8122526E-001	-7.8126729E-001	-4.667732361168881E-001	3.6467466E-004
2	1	0	1	2.288399942190154E+000	-7.7622271E-001	-7.7626026E-001	-4.556184580451887E-001	3.5367851E-004
2	1	0	0	2.338499940924521E+000	-7.7121341E-001	-7.7124369E-001	-4.447214156134649E-001	3.4298858E-004
2	1	0	0	2.388599939658889E+000	-7.6620382E-001	-7.6624382E-001	-4.341456038804989E-001	3.3266138E-004
2	1	0	0	2.438599938395782E+000	-7.6120192E-001	-7.6123089E-001	-4.236224400910968E-001	3.2247449E-004
2	1	0	1	2.488699937130150E+000	-7.5619459E-001	-7.5622630E-001	-4.131041654852492E-001	3.1240023E-004
2	1	0	1	2.538799935864517E+000	-7.5118327E-001	-7.5120169E-001	-4.029412953264613E-001	3.0269017E-004
2	1	0	1	2.588799934601411E+000	-7.4618256E-001	-7.4620599E-001	-3.929364078739756E-001	2.9321149E-004
2	1	0	1	2.638799933338305E+000	-7.4118471E-001	-7.4119681E-001	-3.831189988560890E-001	2.8396657E-004
2	1	0	0	2.688999932070146E+000	-7.3616242E-001	-7.3619318E-001	-3.734050454025404E-001	2.7489825E-004
2	1	0	0	2.738999930807040E+000	-7.3116344E-001	-7.3118407E-001	-3.640341272647056E-001	2.6617595E-004
2	1	0	0	2.788999929543934E+000	-7.2616386E-001	-7.2618878E-001	-3.546524492520469E-001	2.5754463E-004
2	1	0	1	2.839199928275775E+000	-7.2114128E-001	-7.2115684E-001	-3.454998091788850E-001	2.4915955E-004
2	1	0	1	2.889199927012669E+000	-7.1614516E-001	-7.1618181E-001	-3.365749353059355E-001	2.4104885E-004
2	1	0	1	2.939199925749563E+000	-7.1114302E-001	-7.1118492E-001	-3.278322000901710E-001	2.3314932E-004
2	1	0	0	2.989299924483930E+000	-7.0613241E-001	-7.0616776E-001	-3.191864353669924E-001	2.2539917E-004
2	1	0	0	3.039399923218298E+000	-7.0112443E-001	-7.0115429E-001	-3.109766916476344E-001	2.1804264E-004
2	1	0	0	3.089399921955192E+000	-6.9612193E-001	-6.9615233E-001	-3.025795542457401E-001	2.1064146E-004
2	1	0	1	3.139499920689559E+000	-6.9111335E-001	-6.9114298E-001	-2.944047227571751E-001	2.0347576E-004
2	1	0	1	3.189599919423927E+000	-6.8610388E-001	-6.8613952E-001	-2.862391849403574E-001	1.9640001E-004
2	1	0	1	3.239599918160820E+000	-6.8110144E-001	-6.8113089E-001	-2.785086104831218E-001	1.8970082E-004
2	1	0	0	3.289699916895188E+000	-6.7609483E-001	-6.7614096E-001	-2.708683701443499E-001	1.8314520E-004
2	1	0	0	3.339799915629555E+000	-6.7108285E-001	-6.7112345E-001	-2.632317577042920E-001	1.7666101E-004
2	1	0	0	3.389799914366449E+000	-6.6608232E-001	-6.6609794E-001	-2.559977683281831E-001	1.7051959E-004
2	1	0	0	3.439799913103343E+000	-6.6108394E-001	-6.6111213E-001	-2.489342745994341E-001	1.6457347E-004
2	1	0	1	3.489999911835184E+000	-6.5606189E-001	-6.5610218E-001	-2.418991992318413E-001	1.5871059E-004
2	1	0	1	3.539999910572078E+000	-6.5106380E-001	-6.5111500E-001	-2.349676180241884E-001	1.5299094E-004
2	1	0	1	3.589999909308972E+000	-6.4606333E-001	-6.4610326E-001	-2.282844258179511E-001	1.4749532E-004
2	1	0	0	3.640099908043339E+000	-6.4105135E-001	-6.4109397E-001	-2.217611110772000E-001	1.4216971E-004
2	1	0	0	3.690199906777707E+000	-6.3604486E-001	-6.3611412E-001	-2.152804072366710E-001	1.3694291E-004
2	1	0	0	3.740199905514601E+000	-6.3104236E-001	-6.3111222E-001	-2.090059729654090E-001	1.3190623E-004
2	1	0	1	3.790299904248968E+000	-6.2603211E-001	-6.2609941E-001	-2.028483703275925E-001	1.2700325E-004
2	1	0	1	3.840399902983336E+000	-6.2102413E-001	-6.2109917E-001	-1.969352623577461E-001	1.2231633E-004
2	1	0	1	3.890399901720230E+000	-6.1602169E-001	-6.1609328E-001	-1.910163685231892E-001	1.1768390E-004
2	1	0	0	3.940499900454597E+000	-6.1101383E-001	-6.1108184E-001	-1.853187473574995E-001	1.1324492E-004
2	1	0	0	3.990599899188965E+000	-6.0600322E-001	-6.0606676E-001	-1.797032798486302E-001	1.0891219E-004
2	1	0	0	4.040599897925858E+000	-6.0100126E-001	-6.0106045E-001	-1.742265597428609E-001	1.0472070E-004
2	1	0	0	4.090599896662752E+000	-5.9600443E-001	-5.9605521E-001	-1.689363811400568E-001	1.0069541E-004
2	1	0	1	4.140799895394593E+000	-5.9098244E-001	-5.9103698E-001	-1.637951327730804E-001	9.6808981E-005
2	1	0	1	4.190799894131487E+000	-5.8598256E-001	-5.8604163E-001	-1.587679019280426E-001	9.3044597E-005
2	1	0	1	4.240799892868381E+000	-5.8098400E-001	-5.8103096E-001	-1.537580670664394E-001	8.9338195E-005
2	1	0	0	4.290999891600222E+000	-5.7596183E-001	-5.7602602E-001	-1.489440760788718E-001	8.5795662E-005
2	1	0	0	4.340999890337116E+000	-5.7096386E-001	-5.7101631E-001	-1.442149572283833E-001	8.2349092E-005
2	1	0	0	4.390999889074010E+000	-5.6596279E-001	-5.6601673E-001	-1.395865965536602E-001	7.9008350E-005
2	1	0	1	4.441099887808377E+000	-5.6095111E-001	-5.6100821E-001	-1.351848079041088E-001	7.5839787E-005
2	1	0	1	4.491199886542745E+000	-5.5594462E-001	-5.5601948E-001	-1.308619374113463E-001	7.2761788E-005
2	1	0	1	4.541199885279639E+000	-5.5094218E-001	-5.5100149E-001	-1.266372320382236E-001	6.9777307E-005
2	1	0	0	4.591299884014006E+000	-5.4593289E-001	-5.4599589E-001	-1.224768373355362E-001	6.6871849E-005
2	1	0	0	4.641399882748374E+000	-5.4092383E-001	-5.4099059E-001	-1.185037225248715E-001	6.4109401E-005
2	1	0	0	4.691399881485268E+000	-5.3592128E-001	-5.3598672E-001	-1.146334429755465E-001	6.1442006E-005
2	1	0	1	4.741499880219635E+000	-5.3091365E-001	-5.3097147E-001	-1.108377205507051E-001	5.8851667E-005
2	1	0	1	4.791599878954003E+000	-5.2590299E-001	-5.2597028E-001	-1.070928736628152E-001	5.6327670E-005
2	1	0	1	4.841599877690896E+000	-5.2090126E-001	-5.2095389E-001	-1.035516051942371E-001	5.3945612E-005
2	1	0	1	4.891599876427790E+000	-5.1590466E-001	-5.1597297E-001	-1.000162252098304E-001	5.1605668E-005
2	1	0	0	4.941799875159631E+000	-5.1088226E-001	-5.1094669E-001	-9.658537425459057E-002	4.9349976E-005
2	1	0	0	4.991799873896525E+000	-5.0588274E-001	-5.0593776E-001	-9.335852781484411E-002	4.7233603E-005
2	1	0	0	5.041799872633419E+000	-5.0088334E-001	-5.0094175E-001	-9.016647364161612E-002	4.5168152E-005
2	1	0	1	5.091999871365260E+000	-4.9586108E-001	-4.9591595E-001	-8.707331938120422E-002	4.3181048E-005
2	1	0	1	5.141999870102154E+000	-4.9086404E-001	-4.9091741E-001	-8.406260176656333E-002	4.1267795E-005
2	1	0	1	5.191999868839048E+000	-4.8586267E-001	-4.8591518E-001	-8.111615157351904E-002	3.9415569E-005
2	1	0	0	5.242099867573415E+000	-4.8085180E-001	-4.8090315E-001	-7.825233154044264E-002	3.7631791E-005
2	1	0	0	5.292199866307783E+000	-4.7584435E-001	-4.7589412E-001	-7.541609784704773E-002	3.5890076E-005
2	1	0	0	5.342199865044677E+000	-4.7084177E-001	-4.7088912E-001	-7.267574919010100E-002	3.4222219E-005
2	1	0	1	5.392299863779044E+000	-4.6583271E-001	-4.6587488E-001	-7.002262557245720E-002	3.2621781E-005
2	1	0	1	5.442399862513412E+000	-4.6082360E-001	-4.6086669E-001	-6.746286126891776E-002	3.1091386E-005
2	1	0	1	5.492399861250306E+000	-4.5582080E-001	-4.5586076E-001	-6.500808839692818E-002	2.9634637E-005
2	1	0	0	5.542499859984673E+000	-4.5081443E-001	-4.5085740E-001	-6.259356282832629E-002	2.8220771E-005
2	1	0	0	5.592599858719041E+000	-4.4580272E-001	-4.4583035E-001	-6.026097240871620E-002	2.6866170E-005
2	1	0	0	5.642599857455934E+000	-4.4080153E-001	-4.4083619E-001	-5.803684777946583E-002	2.5584743E-005
2	1	0	0	5.692599856192828E+000	-4.3580383E-001	-4.3584162E-001	-5.584512365614036E-002	2.4339630E-005
2	1	0	1	5.742799854924669E+000	-4.3078178E-001	-4.3081263E-001	-5.374339085691660E-002	2.3153332E-005
2	1	0	1	5.792799853661563E+000	-4.2578271E-001	-4.2582440E-001	-5.170334970470214E-002	2.2016548E-005
2	1	0	1	5.842799852398457E+000	-4.2078331E-001	-4.2081946E-001	-4.969976360169659E-002	2.0914627E-005
2	1	0	0	5.892999851130298E+000	-4.1576087E-001	-4.1579342E-001	-4.783715848363079E-002	1.9890376E-005
2	1	0	0	5.957999849488260E+000	-4.0926287E-001	-4.0933120E-001	-4.543488115151910E-002	1.8597915E-005
2	1	0	1	6.023099847843696E+000	-4.0275407E-001	-4.0280783E-001	-4.316527587046948E-002	1.7387310E-005
2	1	0	1	6.073199846578063E+000	-3.9774248E-001	-3.9778179E-001	-4.141559230494307E-002	1.6474369E-005
2	1	0	1	6.123199845314957E+000	-3.9274159E-001	-3.9276960E-001	-3.981063205606167E-002	1.5636406E-005
2	1	0	1	6.173199844051851E+000	-3.8774407E-001	-3.8779265E-001	-3.825613959338814E-002	1.4835449E-005
2	1	0	0	6.223399842783692E+000	-3.8272151E-001	-3.8275456E-001	-3.671866315617217E-002	1.4054236E-005
2	1	0	0	6.273399841520586E+000	-3.7772292E-001	-3.7777305E-001	-3.521212100970639E-002	1.3302190E-005
2	1	0	0	6.323399840257480E+000	-3.7272283E-001	-3.7276283E-001	-3.376587392937358E-002	1.2586663E-005
2	1	0	1	6.373599838989321E+000	-3.6770067E-001	-3.6774236E-001	-3.237755532537834E-002	1.1906599E-005
2	1	0	1	6.423599837726215E+000	-3.6270410E-001	-3.6274537E-001	-3.104168259655549E-002	1.1260227E-005
2	1	0	1	6.473599836463109E+000	-3.5770211E-001	-3.5775179E-001	-2.975155310284916E-002	1.0643671E-005
2	1	0	0	6.523699835197476E+000	-3.5269192E-001	-3.5271987E-001	-2.856898896397711E-002	1.0076850E-005
2	1	0	0	6.573799833931844E+000	-3.4768349E-001	-3.4771100E-001	-2.735126691337031E-002	9.5103360E-006
2	1	0	0	6.623799832668738E+000	-3.4268135E-001	-3.4271315E-001	-2.618825795169448E-002	8.9750602E-006
2	1	0	1	6.673899831403105E+000	-3.3767304E-001	-3.3770612E-001	-2.503643354960279E-002	8.4549565E-006
2	1	0	1	6.723999830137473E+000	-3.3266267E-001	-3.3268669E-001	-2.394933539341726E-002	7.9676256E-006
2	1	0	1	6.773999828874366E+000	-3.2766038E-001	-3.2769480E-001	-2.289229768712597E-002	7.5016869E-006
2	1	0	1	6.823999827611260E+000	-3.2266432E-001	-3.2271555E-001	-2.190851749473524E-002	7.0702195E-006
2	1	0	0	6.874199826343101E+000	-3.1764182E-001	-3.1769612E-001	-2.094141292829582E-002	6.6530056E-006
2	1	0	0	6.924199825079995E+000	-3.1264186E-001	-3.1268474E-001	-2.002919877129450E-002	6.2628251E-006
2	1	0	0	6.974199823816889E+000	-3.0764320E-001	-3.0769533E-001	-1.913919263096825E-002	5.8890400E-006
2	1	0	1	7.024399822548730E+000	-3.0262110E-001	-3.0266815E-001	-1.829446104322809E-002	5.5371506E-006
2	1	0	1	7.074399821285624E+000	-2.9762298E-001	-2.9766181E-001	-1.745476060170234E-002	5.1956158E-006
2	1	0	1	7.124399820022518E+000	-2.9262272E-001	-2.9265666E-001	-1.663888255757451E-002	4.8694797E-006
2	1	0	0	7.174499818756885E+000	-2.8761077E-001	-2.8764734E-001	-1.586103060610548E-002	4.5623833E-006
2	1	0	0	7.224599817491253E+000	-2.8260395E-001	-2.8263828E-001	-1.514395543421959E-002	4.2802617E-006
2	1	0	0	7.274599816228147E+000	-2.7760178E-001	-2.7762032E-001	-1.442915107150739E-002	4.0058253E-006
2	1	0	1	7.324699814962514E+000	-2.7259207E-001	-2.7262935E-001	-1.374730668214556E-002	3.7479192E-006
2	1	0	1	7.374799813696882E+000	-2.6758313E-001	-2.6762605E-001	-1.308625057450724E-002	3.5022215E-006
2	1	0	1	7.424799812433776E+000	-2.6258081E-001	-2.6261783E-001	-1.247382682710230E-002	3.2758494E-006
2	1	0	0	7.474899811168143E+000	-2.5757334E-001	-2.5760987E-001	-1.187814014092571E-002	3.0599263E-006
2	1	0	0	7.524999809902511E+000	-2.5256225E-001	-2.5260019E-001	-1.128553708360241E-002	2.8507288E-006
2	1	0	0	7.574999808639404E+000	-2.4756090E-001	-2.4761507E-001	-1.072040323802978E-002	2.6545333E-006
2	1	0	0	7.624999807376298E+000	-2.4256386E-001	-2.4262716E-001	-1.018738549840124E-002	2.4717365E-006
2	1	0	1	7.675199806108139E+000	-2.3754144E-001	-2.3760906E-001	-9.671611018462756E-003	2.2980623E-006
2	1	0	1	7.725199804845033E+000	-2.3254187E-001	-2.3260097E-001	-9.182044426649882E-003	2.1357525E-006
2	1	0	1	7.775199803581927E+000	-2.2754313E-001	-2.2761515E-001	-8.715266576451330E-003	1.9837266E-006
2	1	0	0	7.825399802313768E+000	-2.2252063E-001	-2.2258992E-001	-8.265863216006187E-003	1.8398979E-006
2	1	0	0	7.875399801050662E+000	-2.1752338E-001	-2.1757725E-001	-7.842556647926241E-003	1.7063619E-006
2	1	0	0	7.925399799787556E+000	-2.1252216E-001	-2.1257843E-001	-7.434370298653126E-003	1.5803868E-006
2	1	0	1	7.975499798521923E+000	-2.0751090E-001	-2.0758086E-001	-7.046618738423327E-003	1.4627432E-006
2	1	0	1	8.025599797256291E+000	-2.0250368E-001	-2.0257248E-001	-6.661799513685410E-003	1.3494972E-006
2	1	0	1	8.075599795993185E+000	-1.9750142E-001	-1.9757159E-001	-6.303860096209715E-003	1.2454636E-006
2	1	0	0	8.125699794727552E+000	-1.9249210E-001	-1.9255246E-001	-5.950356085781650E-003	1.1457557E-006
2	1	0	0	8.175799793461920E+000	-1.8748282E-001	-1.8753684E-001	-5.609969411523766E-003	1.0520760E-006
2	1	0	0	8.225799792198814E+000	-1.8248053E-001	-1.8254718E-001	-5.289850082761449E-003	9.6564725E-007
2	1	0	1	8.275899790933181E+000	-1.7747356E-001	-1.7750625E-001	-4.981266716841869E-003	8.8420597E-007
2	1	0	1	8.325999789667549E+000	-1.7246188E-001	-1.7250477E-001	-4.704828355730415E-003	8.1160533E-007
2	1	0	1	8.390999788025511E+000	-1.6596220E-001	-1.6600549E-001	-4.339898068365787E-003	7.2044691E-007
2	1	0	0	8.456099786380946E+000	-1.5945087E-001	-1.5946299E-001	-3.993423164498281E-003	6.3680318E-007
2	1	0	0	8.506199785115314E+000	-1.5444347E-001	-1.5445951E-001	-3.747188516167250E-003	5.7878890E-007
2	1	0	0	8.556199783852207E+000	-1.4944108E-001	-1.4945489E-001	-3.515169107999157E-003	5.2535921E-007
2	1	0	1	8.606299782586575E+000	-1.4443213E-001	-1.4445375E-001	-3.288763027813661E-003	4.7507416E-007
2	1	0	1	8.656399781320943E+000	-1.3942249E-001	-1.3942173E-001	-3.068408462625784E-003	4.2780283E-007
2	1	0	1	8.706399780057836E+000	-1.3442035E-001	-1.3442558E-001	-2.870529797519311E-003	3.8587262E-007
2	1	0	0	8.756499778792204E+000	-1.2941353E-001	-1.2941897E-001	-2.672363971259847E-003	3.4585460E-007
2	1	0	0	8.806599777526571E+000	-1.2440178E-001	-1.2440495E-001	-2.479294310077238E-003	3.0843648E-007
2	1	0	0	8.856599776263465E+000	-1.1940105E-001	-1.1939631E-001	-2.302379186774998E-003	2.7489557E-007
2	1	0	0	8.906599775000359E+000	-1.1440334E-001	-1.1439994E-001	-2.126465847301633E-003	2.4326758E-007
2	1	0	1	8.956799773732200E+000	-1.0938087E-001	-1.0938244E-001	-1.958284704689842E-003	2.1420196E-007
2	1	0	1	9.006799772469094E+000	-1.0438231E-001	-1.0438700E-001	-1.797737327530807E-003	1.8766040E-007
2	1	0	1	9.056799771205988E+000	-9.9382572E-002	-9.9387966E-002	-1.645934067057385E-003	1.6358604E-007
2	1	0	0	9.106999769937829E+000	-9.4360106E-002	-9.4364777E-002	-1.496780332319321E-003	1.4124335E-007
2	1	0	0	9.156999768674723E+000	-8.9363597E-002	-8.9377128E-002	-1.359662322493103E-003	1.2152272E-007
2	1	0	0	9.206999767411617E+000	-8.4361598E-002	-8.4369376E-002	-1.227402241142405E-003	1.0355516E-007
2	1	0	1	9.257099766145984E+000	-7.9351038E-002	-7.9360619E-002	-1.097961009309929E-003	8.7134865E-008
2	1	0	1	9.307199764880352E+000	-7.4343018E-002	-7.4345119E-002	-9.788046532419642E-004	7.2769346E-008
2	1	0	1	9.357199763617245E+000	-6.9340631E-002	-6.9340490E-002	-8.577728122767074E-004	5.9478388E-008
2	1	0	0	9.407299762351613E+000	-6.4332329E-002	-6.4342462E-002	-7.467626330695930E-004	4.8048545E-008
2	1	0	0	9.457399761085981E+000	-5.9322294E-002	-5.9330165E-002	-6.378459567485039E-004	3.7843506E-008
2	1	0	0	9.507399759822874E+000	-5.4319896E-002	-5.4321300E-002	-5.313350575491460E-004	2.8862811E-008
2	1	0	1	9.557499758557242E+000	-4.9313620E-002	-4.9324214E-002	-4.277726612535232E-004	2.1099551E-008
2	1	0	1	9.607599757291609E+000	-4.4301346E-002	-4.4316627E-002	-3.275221821186260E-004	1.4514678E-008
2	1	0	1	9.657599756028503E+000	-3.9301164E-002	-3.9307669E-002	-2.314912996667875E-004	9.0993835E-009
2	1	0	1	9.707599754765397E+000	-3.4302987E-002	-3.4306385E-002	-1.373956465308191E-004	4.7135478E-009
2	1	0	0	9.757799753497238E+000	-2.9280603E-002	-2.9281998E-002	-4.511860899119989E-005	1.3211631E-009
2	1	0	0	9.807799752234132E+000	-2.4282450E-002	-2.4284165E-002	4.546833700076898E-005	1.1041607E-009
2	1	0	0	9.857799750971026E+000	-1.9282052E-002	-1.9269669E-002	1.340547466418526E-004	2.5831906E-009
2	1	0	1	9.907899749705393E+000	-1.4269964E-002	-1.4282102E-002	2.218142361632553E-004	3.1679734E-009
2	1	0	1	9.957999748439761E+000	-9.2635201E-003	-9.2877652E-003	3.095392975092258E-004	2.8749283E-009
2	1	0	1	1.000799974717665E+001	-4.2611156E-003	-4.2891703E-003	3.971799752793749E-004	1.7035725E-009
2	1	0	0	1.005809974591102E+001	7.4875657E-004	7.3233538E-004	4.856461207209109E-004	3.5565584E-010
2	1	0	0	1.010819974464539E+001	5.7571973E-003	5.7249763E-003	5.737102309067450E-004	3.2844776E-009
2	1	0	0	1.015819974338228E+001	1.0759579E-002	1.0751082E-002	6.627949360611205E-004	7.1257626E-009
2	1	0	1	1.020829974211665E+001	1.5767412E-002	1.5765764E-002	7.528079317305333E-004	1.1868592E-008
2	1	0	1	1.025839974085102E+001	2.0778071E-002	2.0772684E-002	8.429641951906673E-004	1.7510629E-008
2	1	0	1	1.030839973958791E+001	2.5779851E-002	2.5773596E-002	9.349715857482586E-004	2.4097581E-008
2	1	0	1	1.035839973832481E+001	3.0776571E-002	3.0768631E-002	1.028993638581209E-003	3.1660726E-008
2	1	0	0	1.040859973705665E+001	3.5798747E-002	3.5793159E-002	1.126605755518465E-003	4.0324778E-008
2	1	0	0	1.045859973579354E+001	4.0798515E-002	4.0789042E-002	1.227377999837090E-003	5.0063573E-008
2	1	0	0	1.050859973453043E+001	4.5797262E-002	4.5784913E-002	1.327800359681261E-003	6.0793226E-008
2	1	0	1	1.055879973326228E+001	5.0819613E-002	5.0811440E-002	1.432844501324661E-003	7.2804895E-008
2	1	0	1	1.060879973199917E+001	5.5817153E-002	5.5814523E-002	1.539587156863749E-003	8.5931326E-008
2	1	0	1	1.065879973073606E+001	6.0818166E-002	6.0810942E-002	1.651909893260493E-003	1.0045419E-007
2	1	0	0	1.070889972947043E+001	6.5829590E-002	6.5829761E-002	1.767086690567811E-003	1.1632689E-007
2	1	0	0	1.075899972820480E+001	7.0836447E-002	7.0838325E-002	1.884915128339840E-003	1.3352422E-007
2	1	0	0	1.080899972694169E+001	7.5839035E-002	7.5841665E-002	2.013349471061739E-003	1.5269578E-007
2	1	0	1	1.085909972567606E+001	8.0848239E-002	8.0837987E-002	2.142940192588198E-003	1.7323097E-007
2	1	0	1	1.090919972441043E+001	8.5857317E-002	8.5858993E-002	2.276903876618906E-003	1.9549267E-007
2	1	0	1	1.095919972314732E+001	9.0859659E-002	9.0846375E-002	2.417640046651251E-003	2.1963383E-007
2	1	0	0	1.100929972188169E+001	9.5866904E-002	9.5864736E-002	2.563282381001890E-003	2.4572839E-007
2	1	0	0	1.104229972104804E+001	9.9171124E-002	9.9168561E-002	2.662200292666454E-003	2.6400659E-007
2	1	0	0	1.105059972083836E+001	9.9997252E-002	1.0010879E-001	2.693190860251583E-003	2.6961206E-007