EC-Lab ASCII FILE
Nb header lines : 55                          

I-V Characterization

Run on channel : 1 (SN 6514)
User : 
CE vs. WE compliance from -10 V to 10 V
Electrode connection : standard
Ewe ctrl range : min = -1.10 V, max = 0.20 V
Safety Limits :
	Do not start on E overload
Acquisition started on : 06/15/2016 17:39:59
Saved on :
	File : B125-G54-UN-G-D1GB-C3 FW 10mVs_C01.mpr
	Directory : E:\EC-Lab measurements\B125-G54-UN-G-D1GB\
	Host : 10.0.2.15
Device : VSP (SN 0295)
Address : USB
EC-Lab for windows v11.01 (software)
Internet server v11.00 (firmware)
Command interpretor v11.00 (firmware)
Electrode material : 
Initial state : 
Electrolyte : 
Comments : 
Electrode surface area : 0.001 cm²
Characteristic mass : 0.001 g
Equivalent Weight : 0.000 g/eq.
Density : 0.000 g/cm3
tR (h:m:s)          0:00:0.0000         
dER/dt (mV/h)       0.0                 
dER (mV)            0                   
dtR (s)             0.0000              
dE/dt               10.000              
dE/dt unit          mV/s                
Ei (V)              0.100               
vs.                 Ref                 
EL (V)              -1.000              
vs.                 Ref                 
record              <I>                 
dI                  0.000               
unit dI             µA                  
tI (s)              0.1000              
step percent        100                 
N                   100                 
E range min (V)     -1.100              
E range max (V)     0.200               
I Range             Auto                
I Range min         Unset               
I Range max         Unset               
I Range init        Unset               
Bandwidth           5                   

mode	ox/red	error	control changes	time/s	control/V	Ewe/V	<I>/mA	P/W
2	0	0	0	1.449999963369919E-001	9.9083051E-002	9.8884739E-002	1.106568818092346E+000	1.0942277E-004
2	0	0	1	3.977999899507267E-001	9.6554942E-002	9.6464679E-002	1.103360457030849E+000	1.0643531E-004
2	0	0	0	8.983999773045070E-001	9.1548942E-002	9.1446213E-002	1.072363006788916E+000	9.8063538E-005
2	0	0	1	1.399099964655761E+000	8.6541921E-002	8.6445473E-002	1.041854324814633E+000	9.0063593E-005
2	0	0	1	1.899799952007015E+000	8.1535019E-002	8.1442431E-002	1.023151512065402E+000	8.3327948E-005
2	0	0	0	2.400399939360796E+000	7.6529004E-002	7.6433554E-002	1.010851629074584E+000	7.7262986E-005
2	0	0	1	2.900999926714576E+000	7.1523011E-002	7.1425803E-002	1.000408412154794E+000	7.1454975E-005
2	0	0	0	3.401599914068356E+000	6.6517018E-002	6.6425718E-002	9.966418656424283E-001	6.6202650E-005
2	0	0	1	3.902199901422136E+000	6.1511017E-002	6.1411720E-002	9.943514508772888E-001	6.1064835E-005
2	0	0	0	4.402799888775917E+000	5.6505051E-002	5.6405213E-002	9.928624007737479E-001	5.6002616E-005
2	0	0	1	4.903499876127171E+000	5.1498037E-002	5.1388577E-002	9.895636515699211E-001	5.0852268E-005
2	0	0	1	5.404199863478425E+000	4.6491079E-002	4.6389550E-002	9.835926577373968E-001	4.5628422E-005
2	0	0	0	5.904799850832205E+000	4.1485056E-002	4.1390028E-002	9.801532687132744E-001	4.0568571E-005
2	0	0	1	6.405399838185986E+000	3.6479060E-002	3.6375470E-002	9.764546802590695E-001	3.5518999E-005
2	0	0	0	6.905999825539766E+000	3.1473085E-002	3.1362243E-002	9.754923294034885E-001	3.0593626E-005
2	0	0	1	7.406599812893546E+000	2.6467083E-002	2.6356615E-002	9.743086400004177E-001	2.5679477E-005
2	0	0	0	7.907199800247326E+000	2.1461077E-002	2.1361521E-002	9.727061176465082E-001	2.0778481E-005
2	0	0	1	8.407899787598581E+000	1.6454132E-002	1.6347928E-002	9.698176794851090E-001	1.5854510E-005
2	0	0	1	8.908599774949835E+000	1.1447162E-002	1.1328990E-002	9.673271456647825E-001	1.0958839E-005
2	0	0	0	9.409199762303615E+000	6.4411624E-003	6.3200486E-003	9.640350521038368E-001	6.0927482E-006
2	0	0	1	9.909799749657395E+000	1.4349904E-003	1.3204848E-003	9.632217365799942E-001	1.2719197E-006
2	0	0	0	1.041039973701118E+001	-3.5708512E-003	-3.6932090E-003	9.627131197272574E-001	3.5555008E-006
2	0	0	1	1.091099972436496E+001	-8.5768737E-003	-8.6982502E-003	9.583622524583753E-001	8.3360746E-006
2	0	0	0	1.141159971171874E+001	-1.3582916E-002	-1.3679590E-002	9.542293510494972E-001	1.3053466E-005
2	0	0	1	1.191229969906999E+001	-1.8589865E-002	-1.8688634E-002	9.547953152619160E-001	1.7843820E-005
2	0	0	1	1.241299968642124E+001	-2.3596862E-002	-2.3693876E-002	9.513319988653546E-001	2.2540742E-005
2	0	0	0	1.291359967377502E+001	-2.8602878E-002	-2.8705377E-002	9.489676128300424E-001	2.7240474E-005
2	0	0	1	1.341419966112881E+001	-3.3608899E-002	-3.3708312E-002	9.497596353959441E-001	3.2014792E-005
2	0	0	0	1.391479964848259E+001	-3.8614925E-002	-3.8706787E-002	9.444092001178941E-001	3.6555044E-005
2	0	0	1	1.441539963583637E+001	-4.3620929E-002	-4.3718725E-002	9.431151181454844E-001	4.1231790E-005
2	0	0	0	1.491599962319015E+001	-4.8626948E-002	-4.8723869E-002	9.432057124836328E-001	4.5956633E-005
2	0	0	0	1.541679961053887E+001	-5.3634889E-002	-5.3734779E-002	9.404101941001535E-001	5.0532733E-005
2	0	0	1	1.591739959789265E+001	-5.8640927E-002	-5.8738180E-002	9.377242943629749E-001	5.5080218E-005
2	0	0	0	1.641799958524643E+001	-6.3646927E-002	-6.3742422E-002	9.367282776011674E-001	5.9709328E-005
2	0	0	1	1.691859957260021E+001	-6.8652943E-002	-6.8743341E-002	9.325843454173126E-001	6.4108965E-005
2	0	0	0	1.741919955995400E+001	-7.3658973E-002	-7.3739156E-002	9.312713744648816E-001	6.8671165E-005
2	0	0	1	1.791979954730778E+001	-7.8665011E-002	-7.8761369E-002	9.275967531408624E-001	7.3058793E-005
2	0	0	0	1.842049953465903E+001	-8.3672009E-002	-8.3763383E-002	9.261638405958763E-001	7.7578617E-005
2	0	0	0	1.892119952201028E+001	-8.8678986E-002	-8.8784523E-002	9.257060789070986E-001	8.2188373E-005
2	0	0	1	1.942179950936406E+001	-9.3685001E-002	-9.3778491E-002	9.226030161168608E-001	8.6520318E-005
2	0	0	0	1.992239949671784E+001	-9.8691016E-002	-9.8788619E-002	9.204226327493004E-001	9.0927279E-005
2	0	0	1	2.042299948407162E+001	-1.0369705E-001	-1.0379323E-001	9.177237034515180E-001	9.5253512E-005
2	0	0	0	2.092359947142540E+001	-1.0870307E-001	-1.0879406E-001	9.155906140019887E-001	9.9610814E-005
2	0	0	1	2.142419945877919E+001	-1.1370907E-001	-1.1379984E-001	9.137800739101447E-001	1.0398803E-004
2	0	0	0	2.192489944613044E+001	-1.1871605E-001	-1.1880256E-001	9.092341931648882E-001	1.0801935E-004
2	0	0	0	2.242559943348169E+001	-1.2372304E-001	-1.2381397E-001	9.089062341406855E-001	1.1253529E-004
2	0	0	1	2.292619942083547E+001	-1.2872906E-001	-1.2883298E-001	9.055008719833495E-001	1.1665838E-004
2	0	0	0	2.342679940818925E+001	-1.3373509E-001	-1.3381884E-001	9.021818014106469E-001	1.2072892E-004
2	0	0	1	2.392739939554303E+001	-1.3874111E-001	-1.3883679E-001	8.999049762665967E-001	1.2493992E-004
2	0	0	0	2.442799938289681E+001	-1.4374714E-001	-1.4387485E-001	8.981971486784435E-001	1.2922798E-004
2	0	0	1	2.492859937025059E+001	-1.4875317E-001	-1.4886819E-001	8.951183017125222E-001	1.3325464E-004
2	0	0	0	2.542929935760185E+001	-1.5376012E-001	-1.5386871E-001	8.919366492644381E-001	1.3724114E-004
2	0	0	0	2.592999934495310E+001	-1.5876718E-001	-1.5888488E-001	8.904947571505568E-001	1.4148616E-004
2	0	0	1	2.643059933230688E+001	-1.6377316E-001	-1.6390467E-001	8.878602258040829E-001	1.4552443E-004
2	0	0	0	2.693119931966066E+001	-1.6877916E-001	-1.6889511E-001	8.852881840013036E-001	1.4952084E-004
2	0	0	1	2.743179930701444E+001	-1.7378524E-001	-1.7390467E-001	8.814910485056657E-001	1.5329540E-004
2	0	0	0	2.793239929436822E+001	-1.7879121E-001	-1.7890869E-001	8.762563149785922E-001	1.5676986E-004
2	0	0	1	2.843299928172200E+001	-1.8379726E-001	-1.8393087E-001	8.721063486755067E-001	1.6040729E-004
2	0	0	0	2.893369926907326E+001	-1.8880421E-001	-1.8893127E-001	8.701647286757765E-001	1.6440132E-004
2	0	0	0	2.943439925642451E+001	-1.9381119E-001	-1.9394508E-001	8.680131939763571E-001	1.6834689E-004
2	0	0	1	2.993499924377829E+001	-1.9881724E-001	-1.9894698E-001	8.622791199532995E-001	1.7154783E-004
2	0	0	0	3.043559923113207E+001	-2.0382328E-001	-2.0397080E-001	8.586612094230865E-001	1.7514182E-004
2	0	0	1	3.093619921848585E+001	-2.0882927E-001	-2.0897281E-001	8.564696833000802E-001	1.7897888E-004
2	0	0	0	3.143679920583963E+001	-2.1383528E-001	-2.1396905E-001	8.529720256947884E-001	1.8250961E-004
2	0	0	1	3.193739919319341E+001	-2.1884133E-001	-2.1898140E-001	8.483814787225565E-001	1.8577976E-004
2	0	0	1	3.243819918054214E+001	-2.2384924E-001	-2.2398542E-001	8.435917418771561E-001	1.8895225E-004
2	0	0	0	3.293879916789592E+001	-2.2885531E-001	-2.2898838E-001	8.403493151600516E-001	1.9243023E-004
2	0	0	1	3.343939915524970E+001	-2.3386130E-001	-2.3399733E-001	8.349379013356621E-001	1.9537324E-004
2	0	0	0	3.393999914260348E+001	-2.3886728E-001	-2.3901355E-001	8.320270246864330E-001	1.9886573E-004
2	0	0	1	3.444059912995726E+001	-2.4387331E-001	-2.4399175E-001	8.266580784074238E-001	2.0169775E-004
2	0	0	0	3.494119911731104E+001	-2.4887934E-001	-2.4899429E-001	8.221329156492416E-001	2.0470640E-004
2	0	0	1	3.544189910466230E+001	-2.5388634E-001	-2.5399119E-001	8.188645700768733E-001	2.0798438E-004
2	0	0	1	3.594259909201355E+001	-2.5889331E-001	-2.5901040E-001	8.127114403000526E-001	2.1050072E-004
2	0	0	0	3.644319907936733E+001	-2.6389933E-001	-2.6400986E-001	8.067630123515350E-001	2.1299339E-004
2	0	0	1	3.694379906672111E+001	-2.6890531E-001	-2.6900589E-001	8.012472045789156E-001	2.1554022E-004
2	0	0	0	3.744439905407489E+001	-2.7391139E-001	-2.7401558E-001	7.965572105909597E-001	2.1826908E-004
2	0	0	1	3.794499904142867E+001	-2.7891743E-001	-2.7902192E-001	7.911506276880231E-001	2.2074836E-004
2	0	0	0	3.844559902878245E+001	-2.8392342E-001	-2.8403810E-001	7.847634482013066E-001	2.2290272E-004
2	0	0	1	3.894629901613371E+001	-2.8893042E-001	-2.8904650E-001	7.776684660525053E-001	2.2478234E-004
2	0	0	1	3.944699900348496E+001	-2.9393739E-001	-2.9405025E-001	7.721267640064475E-001	2.2704406E-004
2	0	0	0	3.994759899083874E+001	-2.9894340E-001	-2.9906788E-001	7.667256580129108E-001	2.2930303E-004
2	0	0	1	4.044819897819252E+001	-3.0394942E-001	-3.0408549E-001	7.600645598399893E-001	2.3112461E-004
2	0	0	0	4.094879896554630E+001	-3.0895552E-001	-3.0908012E-001	7.520058523724416E-001	2.3243006E-004
2	0	0	1	4.144939895290008E+001	-3.1396160E-001	-3.1407380E-001	7.432907778106226E-001	2.3344815E-004
2	0	0	0	4.194999894025386E+001	-3.1896758E-001	-3.1909996E-001	7.349551092022732E-001	2.3452415E-004
2	0	0	1	4.245069892760512E+001	-3.2397443E-001	-3.2409659E-001	7.282395527404528E-001	2.3601996E-004
2	0	0	1	4.295139891495637E+001	-3.2898149E-001	-3.2907623E-001	7.213538631654064E-001	2.3738042E-004
2	0	0	0	4.345199890231015E+001	-3.3398750E-001	-3.3408678E-001	7.127380355359139E-001	2.3811635E-004
2	0	0	1	4.395259888966393E+001	-3.3899358E-001	-3.3910874E-001	7.023756330086464E-001	2.3818172E-004
2	0	0	0	4.445319887701771E+001	-3.4399962E-001	-3.4409994E-001	6.945522943505580E-001	2.3899540E-004
2	0	0	1	4.495379886437149E+001	-3.4900558E-001	-3.4911767E-001	6.864208613720975E-001	2.3964165E-004
2	0	0	0	4.545439885172527E+001	-3.5401154E-001	-3.5411748E-001	6.784418285712710E-001	2.4024812E-004
2	0	0	0	4.595519883907400E+001	-3.5901949E-001	-3.5914895E-001	6.689647353646748E-001	2.4025798E-004
2	0	0	1	4.645579882642778E+001	-3.6402556E-001	-3.6415020E-001	6.577863513140567E-001	2.3953302E-004
2	0	0	0	4.695639881378156E+001	-3.6903167E-001	-3.6914149E-001	6.487322434817817E-001	2.3947399E-004
2	0	0	1	4.745699880113534E+001	-3.7403771E-001	-3.7415087E-001	6.382592935118261E-001	2.3880527E-004
2	0	0	0	4.795759878848912E+001	-3.7904361E-001	-3.7914938E-001	6.280834809272102E-001	2.3813747E-004
2	0	0	1	4.845819877584290E+001	-3.8404959E-001	-3.8417220E-001	6.192800495059192E-001	2.3791018E-004
2	0	0	0	4.895889876319416E+001	-3.8905662E-001	-3.8916582E-001	6.101442895469393E-001	2.3744730E-004
2	0	0	0	4.945959875054541E+001	-3.9406359E-001	-3.9417174E-001	5.998892030710170E-001	2.3645937E-004
2	0	0	1	4.996019873789919E+001	-3.9906970E-001	-3.9919737E-001	5.882637918099860E-001	2.3483337E-004
2	0	0	0	5.046079872525297E+001	-4.0407574E-001	-4.0420154E-001	5.767237933311620E-001	2.3311265E-004
2	0	0	1	5.096139871260675E+001	-4.0908167E-001	-4.0917715E-001	5.650929176635577E-001	2.3122311E-004
2	0	0	0	5.146199869996053E+001	-4.1408765E-001	-4.1420111E-001	5.524461238421023E-001	2.2882380E-004
2	0	0	1	5.196259868731431E+001	-4.1909367E-001	-4.1920236E-001	5.403214549465201E-001	2.2650402E-004
2	0	0	0	5.246329867466557E+001	-4.2410073E-001	-4.2421195E-001	5.290579168295715E-001	2.2443269E-004
2	0	0	0	5.296399866201682E+001	-4.2910776E-001	-4.2920989E-001	5.180930762254903E-001	2.2237067E-004
2	0	0	1	5.346459864937060E+001	-4.3411371E-001	-4.3422157E-001	5.044436817219609E-001	2.1904033E-004
2	0	0	0	5.396519863672438E+001	-4.3911967E-001	-4.3923217E-001	4.915291170633234E-001	2.1589540E-004
2	0	0	1	5.448329862363607E+001	-4.4430071E-001	-4.4438547E-001	4.803918522596753E-001	2.1347916E-004
2	0	0	1	5.500139861054777E+001	-4.4948173E-001	-4.4953877E-001	4.675635684485085E-001	2.1018795E-004
2	0	0	1	5.550219859789649E+001	-4.5448974E-001	-4.5455876E-001	4.547058575890937E-001	2.0669053E-004
2	0	0	0	5.600279858525028E+001	-4.5949584E-001	-4.5957023E-001	4.415982839633070E-001	2.0294542E-004
2	0	0	1	5.650339857260406E+001	-4.6450177E-001	-4.6455145E-001	4.292978080529617E-001	1.9943091E-004
2	0	0	0	5.700399855995784E+001	-4.6950769E-001	-4.6956274E-001	4.158085784671526E-001	1.9524821E-004
2	0	0	1	5.750459854731162E+001	-4.7451374E-001	-4.7457859E-001	4.013741168456599E-001	1.9048357E-004
2	0	0	0	5.800519853466540E+001	-4.7951972E-001	-4.7958797E-001	3.883751297540043E-001	1.8626005E-004
2	0	0	1	5.850589852201665E+001	-4.8452678E-001	-4.8460296E-001	3.759099595206430E-001	1.8216707E-004
2	0	0	1	5.900659850936790E+001	-4.8953381E-001	-4.8959598E-001	3.620369845677534E-001	1.7725186E-004
2	0	0	0	5.950719849672168E+001	-4.9453980E-001	-4.9462438E-001	3.480897223213639E-001	1.7217366E-004
2	0	0	1	6.000779848407547E+001	-4.9954572E-001	-4.9964336E-001	3.352019680473131E-001	1.6748144E-004
2	0	0	0	6.050839847142925E+001	-5.0455171E-001	-5.0463009E-001	3.213971189376226E-001	1.6218665E-004
2	0	0	1	6.100899845878303E+001	-5.0955778E-001	-5.0963801E-001	3.078650901092979E-001	1.5689975E-004
2	0	0	0	6.150959844613681E+001	-5.1456386E-001	-5.1465458E-001	2.929993643006248E-001	1.5079346E-004
2	0	0	1	6.201029843348806E+001	-5.1957089E-001	-5.1964444E-001	2.798871580724747E-001	1.4544181E-004
2	0	0	1	6.251099842083931E+001	-5.2457792E-001	-5.2465737E-001	2.663709229464806E-001	1.3975347E-004
2	0	0	0	6.301159840819309E+001	-5.2958387E-001	-5.2966785E-001	2.522237292143653E-001	1.3359480E-004
2	0	0	1	6.351219839554688E+001	-5.3458989E-001	-5.3467435E-001	2.388027193600761E-001	1.2768169E-004
2	0	0	0	6.401279838290066E+001	-5.3959578E-001	-5.3967547E-001	2.251082780823195E-001	1.2148542E-004
2	0	0	1	6.451339837025444E+001	-5.4460198E-001	-5.4469407E-001	2.105759627732815E-001	1.1469948E-004
2	0	0	0	6.501399835760822E+001	-5.4960793E-001	-5.4968268E-001	1.970242853852271E-001	1.0830084E-004
2	0	0	1	6.551469834495947E+001	-5.5461496E-001	-5.5471849E-001	1.829532341479156E-001	1.0148755E-004
2	0	0	1	6.601539833231072E+001	-5.5962199E-001	-5.5971706E-001	1.691676508260584E-001	9.4686024E-005
2	0	0	0	6.651599831966450E+001	-5.6462789E-001	-5.6471545E-001	1.550723285978139E-001	8.7571738E-005
2	0	0	1	6.701659830701828E+001	-5.6963402E-001	-5.6972218E-001	1.415177755770742E-001	8.0625818E-005
2	0	0	0	6.751719829437207E+001	-5.7463998E-001	-5.7473910E-001	1.280751314989472E-001	7.3609786E-005
2	0	0	1	6.801779828172585E+001	-5.7964605E-001	-5.7973379E-001	1.144559825223497E-001	6.6353998E-005
2	0	0	0	6.851839826907963E+001	-5.8465219E-001	-5.8473486E-001	1.004265383006541E-001	5.8722897E-005
2	0	0	1	6.901909825643088E+001	-5.8965898E-001	-5.8973789E-001	8.696560235841977E-002	5.1286912E-005
2	0	0	1	6.951979824378213E+001	-5.9466606E-001	-5.9474999E-001	7.337312687194508E-002	4.3638665E-005
2	0	0	0	7.002039823113591E+001	-5.9967208E-001	-5.9975892E-001	5.947872289776901E-002	3.5672896E-005
2	0	0	1	7.053849821804761E+001	-6.0485321E-001	-6.0494709E-001	4.578443384788666E-002	2.7697160E-005
2	0	0	1	7.105659820495930E+001	-6.1003411E-001	-6.1012048E-001	3.166396294084273E-002	1.9318832E-005
2	0	0	0	7.155729819231055E+001	-6.1504114E-001	-6.1513293E-001	1.834194955248059E-002	1.1282737E-005
2	0	0	0	7.207549817921972E+001	-6.2022322E-001	-6.2032986E-001	4.638435652137118E-003	2.8773602E-006
2	0	0	0	7.261109816568933E+001	-6.2557900E-001	-6.2566924E-001	-9.716979220124921E-003	6.0796151E-006
2	0	0	0	7.312919815260102E+001	-6.3076019E-001	-6.3085359E-001	-2.339817624218166E-002	1.4760823E-005
2	0	0	1	7.362989813995227E+001	-6.3576698E-001	-6.3586730E-001	-3.647193602667098E-002	2.3191311E-005
2	0	0	1	7.413059812730353E+001	-6.4077419E-001	-6.4084363E-001	-4.957069146782150E-002	3.1767060E-005
2	0	0	0	7.463119811465731E+001	-6.4578027E-001	-6.4585209E-001	-6.261025237721007E-002	4.0436964E-005
2	0	0	1	7.513179810201109E+001	-6.5078616E-001	-6.5086132E-001	-7.554633578369763E-002	4.9170187E-005
2	0	0	0	7.563239808936487E+001	-6.5579224E-001	-6.5585876E-001	-8.837096445326265E-002	5.7958870E-005
2	0	0	1	7.615059807627404E+001	-6.6097414E-001	-6.6103047E-001	-1.016141342514183E-001	6.7170040E-005
2	0	0	0	7.666879806318320E+001	-6.6615623E-001	-6.6621447E-001	-1.148417675507047E-001	7.6509248E-005
2	0	0	1	7.716939805053698E+001	-6.7116213E-001	-6.7121369E-001	-1.275034003020989E-001	8.5582025E-005
2	0	0	0	7.766999803789076E+001	-6.7616826E-001	-6.7624646E-001	-1.400183701064623E-001	9.4686926E-005
2	0	0	1	7.817059802524454E+001	-6.8117446E-001	-6.8123639E-001	-1.525144391022564E-001	1.0389838E-004
2	0	0	0	7.867119801259832E+001	-6.8618023E-001	-6.8623841E-001	-1.650508207552621E-001	1.1326421E-004
2	0	0	1	7.917179799995210E+001	-6.9118637E-001	-6.9125378E-001	-1.773423747983749E-001	1.2258859E-004
2	0	0	0	7.967249798730336E+001	-6.9619316E-001	-6.9625318E-001	-1.894711034673944E-001	1.3191986E-004
2	0	0	0	8.017319797465461E+001	-7.0120037E-001	-7.0125502E-001	-2.016799116250128E-001	1.4142905E-004
2	0	0	1	8.067379796200839E+001	-7.0620638E-001	-7.0626462E-001	-2.135883196743880E-001	1.5084987E-004
2	0	0	0	8.117439794936217E+001	-7.1121228E-001	-7.1128052E-001	-2.259032627889837E-001	1.6068059E-004
2	0	0	1	8.167499793671595E+001	-7.1621841E-001	-7.1627265E-001	-2.377598754078234E-001	1.7030089E-004
2	0	0	0	8.217559792406973E+001	-7.2122419E-001	-7.2128117E-001	-2.496564519585658E-001	1.8007250E-004
2	0	0	1	8.267619791142351E+001	-7.2623044E-001	-7.2628903E-001	-2.613433804572285E-001	1.8981083E-004
2	0	0	0	8.317689789877477E+001	-7.3123723E-001	-7.3128664E-001	-2.726049177857837E-001	1.9935233E-004
2	0	0	0	8.367759788612602E+001	-7.3624432E-001	-7.3630148E-001	-2.843852802180962E-001	2.0939330E-004
2	0	0	1	8.417819787347980E+001	-7.4125051E-001	-7.4129498E-001	-2.958470257516073E-001	2.1930992E-004
2	0	0	0	8.467879786083358E+001	-7.4625629E-001	-7.4630964E-001	-3.072086763187061E-001	2.2927280E-004
2	0	0	1	8.517939784818736E+001	-7.5126243E-001	-7.5132185E-001	-3.186888043796827E-001	2.3943787E-004
2	0	0	0	8.567999783554114E+001	-7.5626826E-001	-7.5633526E-001	-3.297010181567428E-001	2.4936450E-004
2	0	0	1	8.618059782289492E+001	-7.6127464E-001	-7.6133877E-001	-3.410549474488350E-001	2.5965835E-004
2	0	0	1	8.668139781024365E+001	-7.6628250E-001	-7.6634818E-001	-3.523095420127964E-001	2.6999178E-004
2	0	0	0	8.718199779759743E+001	-7.7128834E-001	-7.7135557E-001	-3.632780544860950E-001	2.8021654E-004
2	0	0	1	8.768259778495121E+001	-7.7629453E-001	-7.7637410E-001	-3.740031468764595E-001	2.9036636E-004
2	0	0	0	8.818319777230499E+001	-7.8130031E-001	-7.8137070E-001	-3.848196362973662E-001	3.0068678E-004
2	0	0	1	8.868379775965877E+001	-7.8630656E-001	-7.8638035E-001	-3.958738578209546E-001	3.1130743E-004
2	0	0	0	8.918439774701255E+001	-7.9131246E-001	-7.9138947E-001	-4.064213809620609E-001	3.2163761E-004
2	0	0	1	8.968509773436381E+001	-7.9631948E-001	-7.9640883E-001	-4.170636019484180E-001	3.3215314E-004
2	0	0	1	9.018579772171506E+001	-8.0132663E-001	-8.0140245E-001	-4.277699180231975E-001	3.4281585E-004
2	0	0	0	9.068639770906884E+001	-8.0633235E-001	-8.0641627E-001	-4.380219013421207E-001	3.5322798E-004
2	0	0	1	9.118699769642262E+001	-8.1133860E-001	-8.1143510E-001	-4.482607706405375E-001	3.6373452E-004
2	0	0	0	9.168759768377640E+001	-8.1634444E-001	-8.1643677E-001	-4.588172992764634E-001	3.7459531E-004
2	0	0	1	9.218819767113018E+001	-8.2135057E-001	-8.2143480E-001	-4.692661736315051E-001	3.8547156E-004
2	0	0	0	9.268879765848396E+001	-8.2635677E-001	-8.2644898E-001	-4.794099986861942E-001	3.9620791E-004
2	0	0	1	9.318949764583522E+001	-8.3136344E-001	-8.3145976E-001	-4.889200185757812E-001	4.0651733E-004
2	0	0	1	9.369019763318647E+001	-8.3637059E-001	-8.3645797E-001	-4.992478963392841E-001	4.1759989E-004
2	0	0	0	9.419079762054025E+001	-8.4137636E-001	-8.4145224E-001	-5.089077567934002E-001	4.2822157E-004
2	0	0	1	9.469139760789403E+001	-8.4638268E-001	-8.4646940E-001	-5.191589426850065E-001	4.3945215E-004
2	0	0	0	9.519199759524781E+001	-8.5138863E-001	-8.5148352E-001	-5.300703110133225E-001	4.5134613E-004
2	0	0	1	9.569259758260159E+001	-8.5639459E-001	-8.5647976E-001	-5.390490671697847E-001	4.6168463E-004
2	0	0	0	9.619319756995537E+001	-8.6140078E-001	-8.6148399E-001	-5.481523868717633E-001	4.7222449E-004
2	0	0	1	9.669389755730663E+001	-8.6640745E-001	-8.6650282E-001	-5.584965185643771E-001	4.8393881E-004
2	0	0	1	9.719459754465788E+001	-8.7141454E-001	-8.7149799E-001	-5.678254635671038E-001	4.9485877E-004
2	0	0	0	9.769519753201166E+001	-8.7642050E-001	-8.7649339E-001	-5.781527092942742E-001	5.0674705E-004
2	0	0	1	9.819579751936544E+001	-8.8142663E-001	-8.8148636E-001	-5.885632433117092E-001	5.1881047E-004
2	0	0	0	9.869639750671922E+001	-8.8643283E-001	-8.8650155E-001	-5.975287329412335E-001	5.2971015E-004
2	0	0	1	9.919699749407300E+001	-8.9143848E-001	-8.9151013E-001	-6.058847403737664E-001	5.4015237E-004
2	0	0	0	9.969759748142678E+001	-8.9644480E-001	-8.9650828E-001	-6.159987519525010E-001	5.5224798E-004
2	0	0	1	1.001982974687780E+002	-9.0145141E-001	-9.0152538E-001	-6.267890336988744E-001	5.6506624E-004
2	0	0	1	1.006989974561293E+002	-9.0645874E-001	-9.0653414E-001	-6.357354045729613E-001	5.7631586E-004
2	0	0	0	1.011995974434831E+002	-9.1146463E-001	-9.1154802E-001	-6.438655680344354E-001	5.8691436E-004
2	0	0	1	1.017001974308369E+002	-9.1647065E-001	-9.1653633E-001	-6.537845499990063E-001	5.9921731E-004
2	0	0	0	1.022007974181906E+002	-9.2147684E-001	-9.2154515E-001	-6.630910106091181E-001	6.1106833E-004
2	0	0	1	1.027013974055444E+002	-9.2648250E-001	-9.2655683E-001	-6.708517171412360E-001	6.2158227E-004
2	0	0	0	1.032019973928982E+002	-9.3148881E-001	-9.3156499E-001	-6.819046775927142E-001	6.3523854E-004
2	0	0	0	1.037027973802469E+002	-9.3649650E-001	-9.3657702E-001	-6.916161251796726E-001	6.4775179E-004
2	0	0	1	1.042033973676007E+002	-9.4150269E-001	-9.4158226E-001	-6.989801784646730E-001	6.5814733E-004
2	0	0	0	1.047039973549545E+002	-9.4650894E-001	-9.4658107E-001	-7.084044511527399E-001	6.7056227E-004
2	0	0	1	1.052045973423083E+002	-9.5151442E-001	-9.5158482E-001	-7.184757614237265E-001	6.8369065E-004
2	0	0	0	1.057051973296620E+002	-9.5652074E-001	-9.5655596E-001	-7.270017764906358E-001	6.9541787E-004
2	0	0	1	1.062057973170158E+002	-9.6152657E-001	-9.6158892E-001	-7.359041866425731E-001	7.0763729E-004
2	0	0	0	1.067064973043671E+002	-9.6653372E-001	-9.6661055E-001	-7.452655247490263E-001	7.2038150E-004
2	0	0	0	1.072071972917183E+002	-9.7154075E-001	-9.7160739E-001	-7.541666938376235E-001	7.3275395E-004
2	0	0	1	1.077077972790721E+002	-9.7654665E-001	-9.7662324E-001	-7.630661795215952E-001	7.4522814E-004
2	0	0	0	1.082083972664259E+002	-9.8155284E-001	-9.8162359E-001	-7.716214690290542E-001	7.5744186E-004
2	0	0	1	1.087089972537797E+002	-9.8655844E-001	-9.8664421E-001	-7.812306594352343E-001	7.7079673E-004
2	0	0	0	1.092095972411335E+002	-9.9156487E-001	-9.9162078E-001	-7.906822062774168E-001	7.8405690E-004
2	0	0	1	1.097101972284872E+002	-9.9657065E-001	-9.9661702E-001	-7.978571356489716E-001	7.9515798E-004
2	0	0	0	1.100055972210248E+002	-9.9952286E-001	-9.9958926E-001	-8.035407827942826E-001	8.0321071E-004
2	0	0	0	1.100509972198779E+002	-9.9999887E-001	-1.0000205E+000	-8.064902382237569E-001	8.0650678E-004