EC-Lab ASCII FILE
Nb header lines : 55                          

I-V Characterization

Run on channel : 1 (SN 6514)
User : 
CE vs. WE compliance from -10 V to 10 V
Electrode connection : standard
Ewe ctrl range : min = -1.10 V, max = 0.20 V
Safety Limits :
	Do not start on E overload
Acquisition started on : 06/15/2016 18:32:33
Saved on :
	File : B125-G54-UN-G-D1GB-C8 FW 10mVs dark_C01.mpr
	Directory : E:\EC-Lab measurements\B125-G54-UN-G-D1GB\
	Host : 10.0.2.15
Device : VSP (SN 0295)
Address : USB
EC-Lab for windows v11.01 (software)
Internet server v11.00 (firmware)
Command interpretor v11.00 (firmware)
Electrode material : 
Initial state : 
Electrolyte : 
Comments : 
Electrode surface area : 0.001 cm²
Characteristic mass : 0.001 g
Equivalent Weight : 0.000 g/eq.
Density : 0.000 g/cm3
tR (h:m:s)          0:00:0.0000         
dER/dt (mV/h)       0.0                 
dER (mV)            0                   
dtR (s)             0.0000              
dE/dt               10.000              
dE/dt unit          mV/s                
Ei (V)              0.100               
vs.                 Ref                 
EL (V)              -1.000              
vs.                 Ref                 
record              <I>                 
dI                  0.000               
unit dI             µA                  
tI (s)              0.1000              
step percent        100                 
N                   100                 
E range min (V)     -1.100              
E range max (V)     0.200               
I Range             Auto                
I Range min         Unset               
I Range max         Unset               
I Range init        Unset               
Bandwidth           5                   

mode	ox/red	error	control changes	time/s	control/V	Ewe/V	<I>/mA	P/W
2	0	0	0	8.499999785271939E-002	9.9696882E-002	9.9765018E-002	9.740028972737482E-004	9.7171416E-008
2	0	0	1	3.552999910243670E-001	9.6993022E-002	9.6965291E-002	4.908045413413182E-004	4.7591005E-008
2	0	0	1	8.733999779360602E-001	9.1812029E-002	9.1798298E-002	2.272071587461703E-004	2.0857231E-008
2	0	0	0	1.373999965289840E+000	8.6806051E-002	8.6776070E-002	1.550695292021320E-004	1.3456324E-008
2	0	0	1	1.874599952643621E+000	8.1800044E-002	8.1789479E-002	1.247966196322287E-004	1.0207050E-008
2	0	0	0	2.375199939997401E+000	7.6794043E-002	7.6787032E-002	1.013511058629235E-004	7.7824502E-009
2	0	0	0	2.875999927346129E+000	7.1786121E-002	7.1760431E-002	9.694995722636939E-005	6.9571708E-009
2	0	0	1	3.376599914699909E+000	6.6780135E-002	6.6750132E-002	8.789925791865981E-005	5.8672871E-009
2	0	0	0	3.877199902053690E+000	6.1774112E-002	6.1751883E-002	6.705744215348020E-005	4.1409232E-009
2	0	0	1	4.377799889407470E+000	5.6768093E-002	5.6739498E-002	6.528627917333420E-005	3.7043106E-009
2	0	0	0	4.878399876761250E+000	5.1762115E-002	5.1737286E-002	5.828386573913491E-005	3.0154490E-009
2	0	0	1	5.378999864115031E+000	4.6756130E-002	4.6729051E-002	4.832929388466346E-005	2.2583819E-009
2	0	0	0	5.879599851468811E+000	4.1750122E-002	4.1732535E-002	3.176900664303919E-005	1.3258011E-009
2	0	0	1	6.380199838822591E+000	3.6744118E-002	3.6730651E-002	3.254429384165285E-005	1.1953731E-009
2	0	0	0	6.880899826173845E+000	3.1737167E-002	3.1701632E-002	1.731072842881513E-005	5.4877836E-010
2	0	0	0	7.381599813525099E+000	2.6730217E-002	2.6693694E-002	9.498444509925473E-006	2.5354857E-010
2	0	0	1	7.882199800878880E+000	2.1724198E-002	2.1685410E-002	3.975288342013096E-006	8.6205758E-011
2	0	0	0	8.382799788232660E+000	1.6718226E-002	1.6693791E-002	1.096503677955535E-006	1.8304804E-011
2	0	0	1	8.883399775586440E+000	1.1712189E-002	1.1663579E-002	-7.698805803900703E-006	8.9795629E-011
2	0	0	0	9.383999762940221E+000	6.7062140E-003	6.6682966E-003	-1.410633897741602E-005	9.4065256E-011
2	0	0	1	9.884599750294001E+000	1.6997777E-003	1.6541446E-003	-2.127382110714296E-005	3.5189976E-011
2	0	0	0	1.038519973764778E+001	-3.3057677E-003	-3.3589788E-003	-2.854956165551154E-005	9.5897373E-011
2	0	0	1	1.088579972500156E+001	-8.3118044E-003	-8.3672022E-003	-3.646995928639134E-005	3.0515152E-010
2	0	0	0	1.138649971235282E+001	-1.3318791E-002	-1.3349372E-002	-4.286646487906972E-005	5.7224037E-010
2	0	0	0	1.188719969970407E+001	-1.8325802E-002	-1.8346854E-002	-4.507946151177423E-005	8.2706630E-010
2	0	0	1	1.238779968705785E+001	-2.3331800E-002	-2.3355028E-002	-4.898836463020166E-005	1.1441246E-009
2	0	0	0	1.288839967441163E+001	-2.8337793E-002	-2.8364306E-002	-5.641498057731191E-005	1.6001718E-009
2	0	0	1	1.338899966176541E+001	-3.3343829E-002	-3.3360265E-002	-7.549937521174262E-005	2.5186793E-009
2	0	0	0	1.388959964911919E+001	-3.8349833E-002	-3.8380366E-002	-8.004432764600390E-005	3.0721305E-009
2	0	0	1	1.439019963647297E+001	-4.3355845E-002	-4.3385584E-002	-8.153455602645897E-005	3.5374244E-009
2	0	0	0	1.489079962382675E+001	-4.8361842E-002	-4.8378777E-002	-8.537808113315206E-005	4.1304871E-009
2	0	0	1	1.539139961118053E+001	-5.3367905E-002	-5.3402174E-002	-8.662286306549923E-005	4.6258490E-009
2	0	0	0	1.589209959853179E+001	-5.8374841E-002	-5.8392402E-002	-9.147765619575026E-005	5.3416001E-009
2	0	0	0	1.639279958588304E+001	-6.3381836E-002	-6.3422836E-002	-1.029210324463673E-004	6.5275438E-009
2	0	0	1	1.689339957323682E+001	-6.8387873E-002	-6.8423688E-002	-1.142607885606248E-004	7.8181444E-009
2	0	0	0	1.739399956059060E+001	-7.3393889E-002	-7.3410854E-002	-1.367269664006368E-004	1.0037243E-008
2	0	0	1	1.789459954794438E+001	-7.8399934E-002	-7.8414813E-002	-1.433082331235205E-004	1.1237488E-008
2	0	0	0	1.839519953529816E+001	-8.3405934E-002	-8.3428390E-002	-1.526251367890375E-004	1.2733270E-008
2	0	0	1	1.889579952265194E+001	-8.8411950E-002	-8.8443212E-002	-1.756384517598115E-004	1.5534029E-008
2	0	0	0	1.939639951000572E+001	-9.3417943E-002	-9.3432404E-002	-1.700216324337592E-004	1.5885529E-008
2	0	0	1	1.989699949735950E+001	-9.8423980E-002	-9.8454461E-002	-1.681234671465750E-004	1.6552505E-008
2	0	0	1	2.039779948470823E+001	-1.0343193E-001	-1.0346849E-001	-1.918007582922677E-004	1.9845334E-008
2	0	0	0	2.089839947206201E+001	-1.0843797E-001	-1.0846310E-001	-1.856513766231604E-004	2.0136325E-008
2	0	0	1	2.139899945941579E+001	-1.1344399E-001	-1.1344897E-001	-2.004994140848751E-004	2.2746452E-008
2	0	0	0	2.189959944676957E+001	-1.1844996E-001	-1.1846603E-001	-2.012305707674929E-004	2.3838988E-008
2	0	0	1	2.240019943412335E+001	-1.2345599E-001	-1.2347466E-001	-2.176122439926215E-004	2.6869598E-008
2	0	0	0	2.290079942147713E+001	-1.2846203E-001	-1.2847964E-001	-2.352963962195256E-004	3.0230797E-008
2	0	0	1	2.340139940883091E+001	-1.3346803E-001	-1.3348262E-001	-2.373479877382481E-004	3.1681832E-008
2	0	0	0	2.390199939618469E+001	-1.3847402E-001	-1.3849284E-001	-2.490071243815527E-004	3.4485705E-008
2	0	0	1	2.440269938353595E+001	-1.4348108E-001	-1.4350766E-001	-2.601233356691705E-004	3.7329691E-008
2	0	0	1	2.490339937088720E+001	-1.4848803E-001	-1.4852583E-001	-2.749421664218631E-004	4.0836014E-008
2	0	0	0	2.540399935824098E+001	-1.5349407E-001	-1.5353288E-001	-3.078396642875458E-004	4.7263509E-008
2	0	0	1	2.590459934559476E+001	-1.5850008E-001	-1.5853500E-001	-3.042613811651282E-004	4.8236078E-008
2	0	0	0	2.640519933294854E+001	-1.6350608E-001	-1.6356403E-001	-3.116687452072954E-004	5.0977796E-008
2	0	0	1	2.690579932030232E+001	-1.6851209E-001	-1.6855685E-001	-3.161367480008432E-004	5.3287017E-008
2	0	0	0	2.740639930765610E+001	-1.7351815E-001	-1.7356457E-001	-3.493954300421214E-004	6.0642670E-008
2	0	0	1	2.790699929500988E+001	-1.7852414E-001	-1.7858259E-001	-3.995287420195846E-004	7.1348879E-008
2	0	0	0	2.840759928236366E+001	-1.8353018E-001	-1.8358670E-001	-4.213101774095335E-004	7.7346947E-008
2	0	0	1	2.890829926971492E+001	-1.8853714E-001	-1.8860371E-001	-4.869213503429534E-004	9.1835176E-008
2	0	0	1	2.940899925706617E+001	-1.9354412E-001	-1.9360490E-001	-4.915152169497313E-004	9.5159756E-008
2	0	0	0	2.990959924441995E+001	-1.9855015E-001	-1.9860891E-001	-5.669079994893404E-004	1.1259298E-007
2	0	0	1	3.041019923177373E+001	-2.0355619E-001	-2.0363849E-001	-5.649566322670212E-004	1.1504692E-007
2	0	0	0	3.091079921912751E+001	-2.0856215E-001	-2.0862854E-001	-5.806661162433180E-004	1.2114351E-007
2	0	0	1	3.141139920648129E+001	-2.1356824E-001	-2.1364821E-001	-6.277243729944856E-004	1.3411220E-007
2	0	0	0	3.191199919383507E+001	-2.1857421E-001	-2.1863644E-001	-6.263889711076512E-004	1.3695146E-007
2	0	0	1	3.241259918118885E+001	-2.2358017E-001	-2.2364154E-001	-6.357009620480466E-004	1.4216914E-007
2	0	0	0	3.291319916854263E+001	-2.2858624E-001	-2.2865513E-001	-6.988225249809354E-004	1.5978935E-007
2	0	0	1	3.341389915589389E+001	-2.3359321E-001	-2.3365587E-001	-7.356458799605177E-004	1.7188798E-007
2	0	0	1	3.391459914324514E+001	-2.3860022E-001	-2.3866220E-001	-7.502353721530793E-004	1.7905282E-007
2	0	0	0	3.441519913059892E+001	-2.4360624E-001	-2.4368152E-001	-8.084671553975758E-004	1.9700850E-007
2	0	0	1	3.491579911795270E+001	-2.4861224E-001	-2.4865925E-001	-8.386852239926704E-004	2.0854684E-007
2	0	0	0	3.541639910530648E+001	-2.5361827E-001	-2.5365072E-001	-8.506247098240037E-004	2.1576157E-007
2	0	0	1	3.591699909266026E+001	-2.5862426E-001	-2.5865874E-001	-7.595014676833036E-004	1.9645169E-007
2	0	0	0	3.641759908001404E+001	-2.6363027E-001	-2.6365528E-001	-7.458127995638268E-004	1.9663747E-007
2	0	0	1	3.691819906736782E+001	-2.6863626E-001	-2.6866809E-001	-7.868145724574671E-004	2.1139196E-007
2	0	0	0	3.741879905472160E+001	-2.7364233E-001	-2.7366948E-001	-7.680016173198141E-004	2.1017860E-007
2	0	0	0	3.791959904207033E+001	-2.7865031E-001	-2.7867699E-001	-7.791710206109951E-004	2.1713703E-007
2	0	0	1	3.842019902942411E+001	-2.8365627E-001	-2.8369260E-001	-8.919581448421816E-004	2.5304192E-007
2	0	0	0	3.892079901677789E+001	-2.8866231E-001	-2.8869423E-001	-9.705888932996501E-004	2.8020341E-007
2	0	0	1	3.942139900413167E+001	-2.9366833E-001	-2.9369199E-001	-9.616492249061599E-004	2.8242869E-007
2	0	0	0	3.992199899148545E+001	-2.9867443E-001	-2.9872045E-001	-9.524052312232540E-004	2.8450293E-007
2	0	0	1	4.042259897883923E+001	-3.0368048E-001	-3.0374473E-001	-9.481294101475572E-004	2.8798931E-007
2	0	0	0	4.092319896619301E+001	-3.0868647E-001	-3.0873927E-001	-1.070509884119638E-003	3.3050844E-007
2	0	0	1	4.142379895354679E+001	-3.1369245E-001	-3.1374234E-001	-1.033343145204178E-003	3.2420348E-007
2	0	0	0	4.192449894089805E+001	-3.1869951E-001	-3.1873518E-001	-1.078383041370125E-003	3.4371863E-007
2	0	0	0	4.242519892824930E+001	-3.2370645E-001	-3.2372788E-001	-1.133476665518499E-003	3.6693800E-007
2	0	0	1	4.292579891560308E+001	-3.2871246E-001	-3.2873267E-001	-1.161580160562028E-003	3.8184936E-007
2	0	0	0	4.342639890295686E+001	-3.3371848E-001	-3.3372822E-001	-1.232841790813094E-003	4.1143412E-007
2	0	0	1	4.392699889031064E+001	-3.3872449E-001	-3.3875644E-001	-1.258045927700700E-003	4.2617117E-007
2	0	0	0	4.442759887766442E+001	-3.4373048E-001	-3.4374234E-001	-1.345119917214381E-003	4.6237466E-007
2	0	0	1	4.492819886501820E+001	-3.4873649E-001	-3.4878823E-001	-1.419626858894366E-003	4.9514915E-007
2	0	0	0	4.542879885237198E+001	-3.5374245E-001	-3.5379741E-001	-1.383462992373744E-003	4.8946561E-007
2	0	0	1	4.592939883972576E+001	-3.5874847E-001	-3.5882482E-001	-1.400927544554172E-003	5.0268756E-007
2	0	0	0	4.643009882707702E+001	-3.6375543E-001	-3.6379904E-001	-1.444557640414030E-003	5.2552866E-007
2	0	0	0	4.693079881442827E+001	-3.6876246E-001	-3.6880270E-001	-1.532363631039407E-003	5.6513983E-007
2	0	0	1	4.743139880178205E+001	-3.7376851E-001	-3.7379619E-001	-1.621981459884243E-003	6.0629048E-007
2	0	0	0	4.793199878913583E+001	-3.7877455E-001	-3.7883359E-001	-1.671000507736413E-003	6.3303111E-007
2	0	0	1	4.843259877648961E+001	-3.8378063E-001	-3.8380694E-001	-1.714902166990964E-003	6.5819137E-007
2	0	0	0	4.893319876384339E+001	-3.8878661E-001	-3.8884455E-001	-1.817149292791344E-003	7.0658859E-007
2	0	0	1	4.943379875119717E+001	-3.9379266E-001	-3.9381361E-001	-1.875644483951156E-003	7.3865431E-007
2	0	0	0	4.993439873855095E+001	-3.9879864E-001	-3.9883372E-001	-1.939277754738291E-003	7.7344936E-007
2	0	0	1	5.043499872590473E+001	-4.0380463E-001	-4.0382159E-001	-1.997767418012039E-003	8.0674158E-007
2	0	0	1	5.093579871325346E+001	-4.0881258E-001	-4.0885222E-001	-2.081003591337366E-003	8.5082291E-007
2	0	0	0	5.143639870060724E+001	-4.1381860E-001	-4.1385970E-001	-2.203686608490662E-003	9.1201707E-007
2	0	0	1	5.193699868796102E+001	-4.1882458E-001	-4.1882777E-001	-2.398949271946456E-003	1.0047465E-006
2	0	0	0	5.243759867531480E+001	-4.2383060E-001	-4.2386672E-001	-2.352488234856577E-003	9.9714146E-007
2	0	0	1	5.293819866266858E+001	-4.2883664E-001	-4.2885283E-001	-2.509179775362479E-003	1.0760689E-006
2	0	0	0	5.343879865002236E+001	-4.3384260E-001	-4.3387732E-001	-2.539282247339840E-003	1.1017370E-006
2	0	0	1	5.393939863737614E+001	-4.3884858E-001	-4.3886232E-001	-2.652199087281468E-003	1.1639503E-006
2	0	0	0	5.443999862472992E+001	-4.4385463E-001	-4.4389319E-001	-2.690250498914405E-003	1.1941839E-006
2	0	0	1	5.494059861208370E+001	-4.4886065E-001	-4.4888654E-001	-2.772116015319841E-003	1.2443655E-006
2	0	0	1	5.544139859943243E+001	-4.5386860E-001	-4.5392352E-001	-2.988967359157663E-003	1.3567626E-006
2	0	0	0	5.594199858678621E+001	-4.5887461E-001	-4.5890045E-001	-3.058591673525575E-003	1.4035891E-006
2	0	0	1	5.644259857413999E+001	-4.6388066E-001	-4.6393180E-001	-3.128043513060091E-003	1.4511988E-006
2	0	0	0	5.694319856149377E+001	-4.6888673E-001	-4.6896839E-001	-3.212617208727678E-003	1.5066159E-006
2	0	0	1	5.744379854884755E+001	-4.7389278E-001	-4.7392231E-001	-3.310366866995020E-003	1.5688568E-006
2	0	0	0	5.794439853620133E+001	-4.7889873E-001	-4.7893590E-001	-3.480002725195443E-003	1.6666983E-006
2	0	0	1	5.844499852355511E+001	-4.8390469E-001	-4.8394170E-001	-3.571540434268251E-003	1.7284174E-006
2	0	0	0	5.894559851090889E+001	-4.8891073E-001	-4.8896873E-001	-3.783025329903652E-003	1.8497811E-006
2	0	0	1	5.944629849826015E+001	-4.9391770E-001	-4.9395719E-001	-3.891480201056993E-003	1.9222246E-006
2	0	0	1	5.994699848561140E+001	-4.9892470E-001	-4.9894306E-001	-4.009118211676058E-003	2.0003217E-006
2	0	0	0	6.044759847296518E+001	-5.0393069E-001	-5.0397223E-001	-3.913047184686498E-003	1.9720671E-006
2	0	0	1	6.094819846031896E+001	-5.0893670E-001	-5.0898325E-001	-4.007582224768491E-003	2.0397922E-006
2	0	0	0	6.144879844767274E+001	-5.1394272E-001	-5.1399815E-001	-4.115743484999400E-003	2.1154844E-006
2	0	0	1	6.194939843502652E+001	-5.1894873E-001	-5.1901931E-001	-4.298228333815147E-003	2.2308634E-006
2	0	0	0	6.244999842238030E+001	-5.2395475E-001	-5.2400905E-001	-4.454827682370002E-003	2.3343700E-006
2	0	0	1	6.295059840973408E+001	-5.2896076E-001	-5.2901548E-001	-4.611271032153134E-003	2.4394337E-006
2	0	0	0	6.345119839708786E+001	-5.3396678E-001	-5.3404534E-001	-4.880703175709059E-003	2.6065168E-006
2	0	0	1	6.395189838443912E+001	-5.3897381E-001	-5.3901255E-001	-5.051349532472230E-003	2.7227409E-006
2	0	0	1	6.445259837179037E+001	-5.4398078E-001	-5.4403156E-001	-5.148693695496129E-003	2.8010518E-006
2	0	0	0	6.495319835914415E+001	-5.4898679E-001	-5.4904705E-001	-5.337579047643412E-003	2.9305820E-006
2	0	0	1	6.545379834649793E+001	-5.5399293E-001	-5.5406427E-001	-5.310532354612638E-003	2.9423763E-006
2	0	0	0	6.595439833385171E+001	-5.5899894E-001	-5.5907559E-001	-5.691326309698798E-003	3.1818815E-006
2	0	0	1	6.645499832120549E+001	-5.6400496E-001	-5.6407231E-001	-6.120723052984667E-003	3.4525303E-006
2	0	0	0	6.695559830855927E+001	-5.6901097E-001	-5.6908858E-001	-6.640936804964921E-003	3.7792813E-006
2	0	0	1	6.745619829591305E+001	-5.7401699E-001	-5.7407862E-001	-6.956090132521069E-003	3.9933425E-006
2	0	0	0	6.795679828326683E+001	-5.7902300E-001	-5.7906866E-001	-7.174762540714356E-003	4.1546800E-006
2	0	0	0	6.845759827061556E+001	-5.8403081E-001	-5.8410180E-001	-7.376292013104246E-003	4.3085056E-006
2	0	0	1	6.895819825796934E+001	-5.8903694E-001	-5.8908951E-001	-7.554118038631878E-003	4.4500516E-006
2	0	0	0	6.945879824532312E+001	-5.9404302E-001	-5.9411120E-001	-7.732176269271328E-003	4.5937727E-006
2	0	0	1	6.995939823267690E+001	-5.9904909E-001	-5.9908223E-001	-7.743562409327887E-003	4.6390305E-006
2	0	0	0	7.045999822003068E+001	-6.0405493E-001	-6.0410231E-001	-8.123870735854299E-003	4.9076493E-006
2	0	0	1	7.096059820738446E+001	-6.0906100E-001	-6.0910666E-001	-8.323232338053710E-003	5.0697363E-006
2	0	0	0	7.146119819473824E+001	-6.1406702E-001	-6.1413753E-001	-8.576077094106599E-003	5.2668906E-006
2	0	0	1	7.196179818209202E+001	-6.1907309E-001	-6.1912185E-001	-8.825238099711363E-003	5.4638977E-006
2	0	0	0	7.246249816944328E+001	-6.2408000E-001	-6.2413907E-001	-9.178772419175099E-003	5.7288303E-006
2	0	0	0	7.296319815679453E+001	-6.2908709E-001	-6.2914753E-001	-9.538461846050589E-003	6.0010998E-006
2	0	0	1	7.348129814370623E+001	-6.3426805E-001	-6.3433242E-001	-9.830324107579502E-003	6.2356935E-006
2	0	0	1	7.399939813061792E+001	-6.3944918E-001	-6.3949561E-001	-1.004446454997338E-002	6.4233909E-006
2	0	0	0	7.449999811797170E+001	-6.4445508E-001	-6.4449900E-001	-1.033046701997598E-002	6.6579755E-006
2	0	0	1	7.500059810532548E+001	-6.4946115E-001	-6.4950496E-001	-1.068736235493764E-002	6.9414950E-006
2	0	0	0	7.550119809267926E+001	-6.5446728E-001	-6.5450913E-001	-1.108822287778385E-002	7.2573430E-006
2	0	0	1	7.600189808003051E+001	-6.5947419E-001	-6.5950233E-001	-1.140798239489055E-002	7.5235907E-006
2	0	0	1	7.650259806738177E+001	-6.6448122E-001	-6.6451478E-001	-1.176250461831184E-002	7.8163584E-006
2	0	0	0	7.700319805473555E+001	-6.6948718E-001	-6.6952288E-001	-1.213971519929205E-002	8.1278167E-006
2	0	0	1	7.750379804208933E+001	-6.7449325E-001	-6.7452866E-001	-1.240902928999751E-002	8.3702462E-006
2	0	0	0	7.800439802944311E+001	-6.7949903E-001	-6.7953026E-001	-1.246937780030413E-002	8.4733192E-006
2	0	0	1	7.850499801679689E+001	-6.8450522E-001	-6.8453586E-001	-1.263095490366728E-002	8.6463415E-006
2	0	0	0	7.900559800415067E+001	-6.8951112E-001	-6.8953699E-001	-1.327417958102980E-002	9.1530383E-006
2	0	0	1	7.950619799150445E+001	-6.9451737E-001	-6.9454700E-001	-1.374866801224557E-002	9.5490959E-006
2	0	0	0	8.000679797885823E+001	-6.9952315E-001	-6.9955426E-001	-1.407610491931324E-002	9.8469991E-006
2	0	0	1	8.050749796620948E+001	-7.0453030E-001	-7.0455837E-001	-1.436002737741569E-002	1.0117477E-005
2	0	0	1	8.100819795356074E+001	-7.0953721E-001	-7.0956981E-001	-1.478902646193878E-002	1.0493846E-005
2	0	0	0	8.150879794091452E+001	-7.1454322E-001	-7.1458650E-001	-1.505229809956895E-002	1.0756169E-005
2	0	0	1	8.200939792826830E+001	-7.1954912E-001	-7.1957111E-001	-1.543484458264695E-002	1.1106468E-005
2	0	0	0	8.250999791562208E+001	-7.2455543E-001	-7.2458279E-001	-1.595684997725377E-002	1.1562059E-005
2	0	0	1	8.301059790297586E+001	-7.2956133E-001	-7.2958726E-001	-1.634000649324863E-002	1.1921460E-005
2	0	0	0	8.351119789032964E+001	-7.3456734E-001	-7.3458999E-001	-1.654073461047828E-002	1.2150658E-005
2	0	0	1	8.401179787768342E+001	-7.3957354E-001	-7.3957860E-001	-1.687788609906592E-002	1.2482524E-005
2	0	0	0	8.451239786503720E+001	-7.4457937E-001	-7.4460703E-001	-1.773444100113092E-002	1.3205189E-005
2	0	0	1	8.501309785238846E+001	-7.4958646E-001	-7.4962068E-001	-1.808378503313393E-002	1.3555979E-005
2	0	0	1	8.551379783973971E+001	-7.5459319E-001	-7.5461447E-001	-1.859073428884689E-002	1.4028838E-005
2	0	0	0	8.601439782709349E+001	-7.5959939E-001	-7.5964242E-001	-1.894430796492552E-002	1.4390900E-005
2	0	0	1	8.651499781444727E+001	-7.6460522E-001	-7.6465148E-001	-1.917111792551984E-002	1.4659224E-005
2	0	0	0	8.701559780180105E+001	-7.6961142E-001	-7.6966065E-001	-1.963132691539105E-002	1.5109460E-005
2	0	0	1	8.751619778915483E+001	-7.7461720E-001	-7.7464443E-001	-2.003056081924920E-002	1.5516562E-005
2	0	0	0	8.801679777650861E+001	-7.7962351E-001	-7.7966261E-001	-2.053197129161882E-002	1.6008011E-005
2	0	0	1	8.851739776386239E+001	-7.8462929E-001	-7.8468090E-001	-2.102639701032696E-002	1.6499012E-005
2	0	0	0	8.901809775121365E+001	-7.8963643E-001	-7.8968161E-001	-2.166717197845369E-002	1.7110167E-005
2	0	0	0	8.951879773856490E+001	-7.9464322E-001	-7.9470134E-001	-2.223820180208647E-002	1.7672728E-005
2	0	0	1	9.001939772591868E+001	-7.9964954E-001	-7.9970384E-001	-2.261447549252094E-002	1.8084882E-005
2	0	0	0	9.051999771327246E+001	-8.0465543E-001	-8.0470085E-001	-2.325139202597285E-002	1.8710414E-005
2	0	0	1	9.102059770062624E+001	-8.0966145E-001	-8.0971611E-001	-2.377238078890254E-002	1.9248879E-005
2	0	0	0	9.152119768798002E+001	-8.1466752E-001	-8.1472784E-001	-2.450530135173368E-002	1.9965151E-005
2	0	0	1	9.202179767533380E+001	-8.1967342E-001	-8.1972390E-001	-2.501996763763345E-002	2.0509466E-005
2	0	0	0	9.252239766268758E+001	-8.2467967E-001	-8.2474041E-001	-2.572606164794164E-002	2.1217322E-005
2	0	0	1	9.302299765004136E+001	-8.2968551E-001	-8.2974917E-001	-2.651761975519684E-002	2.2002972E-005
2	0	0	0	9.352369763739262E+001	-8.3469260E-001	-8.3475363E-001	-2.722787586426273E-002	2.2728569E-005
2	0	0	0	9.402439762474387E+001	-8.3969939E-001	-8.3972985E-001	-2.768667025521070E-002	2.3249324E-005
2	0	0	1	9.452499761209765E+001	-8.4470552E-001	-8.4475619E-001	-2.824139838604434E-002	2.3857096E-005
2	0	0	0	9.502559759945143E+001	-8.4971130E-001	-8.4976083E-001	-2.884955726537053E-002	2.4515224E-005
2	0	0	1	9.552619758680521E+001	-8.5471755E-001	-8.5477608E-001	-2.967240237964042E-002	2.5363261E-005
2	0	0	0	9.602679757415899E+001	-8.5972327E-001	-8.5977221E-001	-3.016636874756633E-002	2.5936206E-005
2	0	0	1	9.652739756151277E+001	-8.6472964E-001	-8.6479926E-001	-3.080165998246959E-002	2.6637254E-005
2	0	0	0	9.702799754886655E+001	-8.6973542E-001	-8.6979300E-001	-3.142302135034084E-002	2.7331524E-005
2	0	0	1	9.752859753622033E+001	-8.7474167E-001	-8.7480241E-001	-3.232291080305949E-002	2.8276161E-005
2	0	0	0	9.802929752357159E+001	-8.7974846E-001	-8.7976694E-001	-3.294776655701015E-002	2.8986356E-005
2	0	0	0	9.852999751092284E+001	-8.8475567E-001	-8.8480186E-001	-3.364776003470737E-002	2.9771601E-005
2	0	0	1	9.903059749827662E+001	-8.8976151E-001	-8.8980615E-001	-3.453272757894177E-002	3.0727435E-005
2	0	0	0	9.953119748563040E+001	-8.9476758E-001	-8.9480489E-001	-3.505579808027570E-002	3.1368101E-005
2	0	0	1	1.000317974729842E+002	-8.9977372E-001	-8.9981341E-001	-3.580548058858002E-002	3.2218253E-005
2	0	0	0	1.005323974603380E+002	-9.0477955E-001	-9.0483290E-001	-3.665551548268543E-002	3.3167118E-005
2	0	0	1	1.010329974476917E+002	-9.0978575E-001	-9.0983003E-001	-3.755348708303263E-002	3.4167289E-005
2	0	0	0	1.015335974350455E+002	-9.1479152E-001	-9.1483724E-001	-3.837480138227678E-002	3.5106699E-005
2	0	0	1	1.020341974223993E+002	-9.1979778E-001	-9.1983652E-001	-3.899586662893206E-002	3.5869823E-005
2	0	0	1	1.025349974097480E+002	-9.2480540E-001	-9.2484677E-001	-3.979579721564967E-002	3.6805013E-005
2	0	0	0	1.030355973971018E+002	-9.2981166E-001	-9.2986411E-001	-4.068541286915772E-002	3.7831906E-005
2	0	0	1	1.035361973844556E+002	-9.3481749E-001	-9.3485320E-001	-4.140002833723422E-002	3.8702950E-005
2	0	0	0	1.040367973718094E+002	-9.3982369E-001	-9.3985164E-001	-4.232116219028048E-002	3.9775612E-005
2	0	0	1	1.045373973591632E+002	-9.4482940E-001	-9.4487739E-001	-4.316918543947129E-002	4.0789586E-005
2	0	0	0	1.050379973465169E+002	-9.4983578E-001	-9.4987899E-001	-4.410010685859944E-002	4.1889765E-005
2	0	0	1	1.055385973338707E+002	-9.5484149E-001	-9.5485854E-001	-4.508957256093916E-002	4.3054162E-005
2	0	0	0	1.060391973212245E+002	-9.5984781E-001	-9.5984697E-001	-4.594090490641661E-002	4.4096239E-005
2	0	0	1	1.065398973085757E+002	-9.6485448E-001	-9.6489984E-001	-4.687893941815158E-002	4.5233483E-005
2	0	0	1	1.070405972959270E+002	-9.6986169E-001	-9.6990603E-001	-4.773946978665156E-002	4.6302801E-005
2	0	0	0	1.075411972832808E+002	-9.7486764E-001	-9.7491157E-001	-4.871669662684475E-002	4.7494472E-005
2	0	0	1	1.080417972706346E+002	-9.7987360E-001	-9.7992092E-001	-4.973701140152254E-002	4.8738337E-005
2	0	0	0	1.085423972579883E+002	-9.8487973E-001	-9.8492771E-001	-5.081330985799389E-002	5.0047438E-005
2	0	0	1	1.090429972453421E+002	-9.8988557E-001	-9.8991895E-001	-5.184017986710188E-002	5.1317576E-005
2	0	0	0	1.095435972326959E+002	-9.9489188E-001	-9.9492878E-001	-5.290289644947449E-002	5.2634616E-005
2	0	0	1	1.099240972230837E+002	-9.9869567E-001	-9.9870735E-001	-5.369242125288476E-002	5.3623015E-005
2	0	0	0	1.100521972198476E+002	-1.0000215E+000	-9.9999970E-001	-5.327596515417099E-002	5.3275948E-005