EC-Lab ASCII FILE
Nb header lines : 55                          

I-V Characterization

Run on channel : 1 (SN 6514)
User : 
CE vs. WE compliance from -10 V to 10 V
Electrode connection : standard
Ewe ctrl range : min = -1.10 V, max = 0.20 V
Safety Limits :
	Do not start on E overload
Acquisition started on : 06/15/2016 17:56:23
Saved on :
	File : B125-G54-UN-G-D1GB-C6 BW 10mVs_C01.mpr
	Directory : E:\EC-Lab measurements\B125-G54-UN-G-D1GB\
	Host : 10.0.2.15
Device : VSP (SN 0295)
Address : USB
EC-Lab for windows v11.01 (software)
Internet server v11.00 (firmware)
Command interpretor v11.00 (firmware)
Electrode material : 
Initial state : 
Electrolyte : 
Comments : 
Electrode surface area : 0.001 cm²
Characteristic mass : 0.001 g
Equivalent Weight : 0.000 g/eq.
Density : 0.000 g/cm3
tR (h:m:s)          0:00:0.0000         
dER/dt (mV/h)       0.0                 
dER (mV)            0                   
dtR (s)             0.0000              
dE/dt               10.000              
dE/dt unit          mV/s                
Ei (V)              -1.000              
vs.                 Ref                 
EL (V)              0.100               
vs.                 Ref                 
record              <I>                 
dI                  0.000               
unit dI             µA                  
tI (s)              0.1000              
step percent        100                 
N                   100                 
E range min (V)     -1.100              
E range max (V)     0.200               
I Range             Auto                
I Range min         Unset               
I Range max         Unset               
I Range init        Unset               
Bandwidth           5                   

mode	ox/red	error	control changes	time/s	control/V	Ewe/V	<I>/mA	P/W
2	1	0	0	1.449999963369919E-001	-9.9910289E-001	-9.9926054E-001	-1.206851243972778E+000	1.2059588E-003
2	1	0	1	3.977999899507267E-001	-9.9657708E-001	-9.9667728E-001	-1.212693183503614E+000	1.2086637E-003
2	1	0	0	8.983999773045070E-001	-9.9157113E-001	-9.9165738E-001	-1.137764414176296E+000	1.1282725E-003
2	1	0	1	1.399099964655761E+000	-9.8656404E-001	-9.8670012E-001	-1.006348629671207E+000	9.9296425E-004
2	1	0	1	1.899799952007015E+000	-9.8155701E-001	-9.8168319E-001	-8.925814649166168E-001	8.7623222E-004
2	1	0	0	2.400399939360796E+000	-9.7655118E-001	-9.7668105E-001	-8.059645126618324E-001	7.8717025E-004
2	1	0	1	2.900999926714576E+000	-9.7154504E-001	-9.7164565E-001	-7.463579613767237E-001	7.2519545E-004
2	1	0	0	3.401599914068356E+000	-9.6653932E-001	-9.6664888E-001	-6.982864305795378E-001	6.7499781E-004
2	1	0	1	3.902199901422136E+000	-9.6153307E-001	-9.6164149E-001	-6.577353587580674E-001	6.3250563E-004
2	1	0	0	4.402799888775917E+000	-9.5652723E-001	-9.5660329E-001	-6.235933491197123E-001	5.9653143E-004
2	1	0	1	4.903399876129697E+000	-9.5152092E-001	-9.5163101E-001	-5.958696225480757E-001	5.6704803E-004
2	1	0	0	5.403999863483477E+000	-9.4651520E-001	-9.4663787E-001	-5.722505768867254E-001	5.4171408E-004
2	1	0	0	5.904799850832205E+000	-9.4150698E-001	-9.4162434E-001	-5.501668703981544E-001	5.1805051E-004
2	1	0	1	6.405399838185986E+000	-9.3650126E-001	-9.3661803E-001	-5.298148134998311E-001	4.9623410E-004
2	1	0	0	6.905999825539766E+000	-9.3149507E-001	-9.3160844E-001	-5.102904095199019E-001	4.7539084E-004
2	1	0	1	7.406599812893546E+000	-9.2648911E-001	-9.2661870E-001	-4.928513678530342E-001	4.5668529E-004
2	1	0	0	7.922199799868395E+000	-9.2133307E-001	-9.2140180E-001	-4.758075751350219E-001	4.3840994E-004
2	1	0	1	8.437799786843243E+000	-9.1617692E-001	-9.1622454E-001	-4.578386607877643E-001	4.1948303E-004
2	1	0	0	8.938499774194497E+000	-9.1117007E-001	-9.1124851E-001	-4.430815180550427E-001	4.0375738E-004
2	1	0	0	9.439199761545751E+000	-9.0616298E-001	-9.0622795E-001	-4.279101671138710E-001	3.8778415E-004
2	1	0	1	9.939799748899532E+000	-9.0115720E-001	-9.0121943E-001	-4.130441194162393E-001	3.7224338E-004
2	1	0	0	1.044039973625331E+001	-8.9615101E-001	-8.9620674E-001	-3.990466525029670E-001	3.5762831E-004
2	1	0	1	1.094099972360709E+001	-8.9114529E-001	-8.9121032E-001	-3.854243037058627E-001	3.4349412E-004
2	1	0	0	1.144159971096087E+001	-8.8613886E-001	-8.8620120E-001	-3.710645985507570E-001	3.2883789E-004
2	1	0	1	1.194219969831465E+001	-8.8113314E-001	-8.8117379E-001	-3.574080217074926E-001	3.1493857E-004
2	1	0	0	1.244279968566843E+001	-8.7612689E-001	-8.7620956E-001	-3.439874912353269E-001	3.0140512E-004
2	1	0	1	1.294339967302221E+001	-8.7112111E-001	-8.7121356E-001	-3.310653164133397E-001	2.8842859E-004
2	1	0	1	1.344419966037094E+001	-8.6611301E-001	-8.6619347E-001	-3.186743190604138E-001	2.7603362E-004
2	1	0	0	1.394479964772472E+001	-8.6110711E-001	-8.6118585E-001	-3.053658495086662E-001	2.6297674E-004
2	1	0	1	1.444539963507850E+001	-8.5610098E-001	-8.5617501E-001	-2.921479917520127E-001	2.5012981E-004
2	1	0	0	1.494599962243228E+001	-8.5109484E-001	-8.5116684E-001	-2.792707391134650E-001	2.3770600E-004
2	1	0	1	1.544659960978606E+001	-8.4608901E-001	-8.4617960E-001	-2.667427590398090E-001	2.2571228E-004
2	1	0	0	1.594719959713984E+001	-8.4108281E-001	-8.4114468E-001	-2.539380124942334E-001	2.1359861E-004
2	1	0	1	1.644779958449362E+001	-8.3607703E-001	-8.3615237E-001	-2.409255450508985E-001	2.0145047E-004
2	1	0	0	1.694839957184740E+001	-8.3107084E-001	-8.3116269E-001	-2.283329585666678E-001	1.8978183E-004
2	1	0	1	1.744909955919866E+001	-8.2606411E-001	-8.2615000E-001	-2.156791460998062E-001	1.7818333E-004
2	1	0	1	1.794979954654991E+001	-8.2105690E-001	-8.2113421E-001	-2.033186862099820E-001	1.6695193E-004
2	1	0	0	1.845039953390369E+001	-8.1605107E-001	-8.1613868E-001	-1.916027305451116E-001	1.5637440E-004
2	1	0	1	1.895099952125747E+001	-8.1104481E-001	-8.1112999E-001	-1.787711852332128E-001	1.4500666E-004
2	1	0	0	1.945159950861125E+001	-8.0603915E-001	-8.0611801E-001	-1.664514028343858E-001	1.3417947E-004
2	1	0	1	1.995219949596503E+001	-8.0103284E-001	-8.0109191E-001	-1.540710773094519E-001	1.2342510E-004
2	1	0	0	2.045279948331881E+001	-7.9602689E-001	-7.9608762E-001	-1.412805987332684E-001	1.1247174E-004
2	1	0	1	2.095339947067259E+001	-7.9102087E-001	-7.9108489E-001	-1.292172652147675E-001	1.0222183E-004
2	1	0	0	2.145409945802385E+001	-7.8601378E-001	-7.8607726E-001	-1.166127881342351E-001	9.1666661E-005
2	1	0	0	2.195479944537510E+001	-7.8100693E-001	-7.8107703E-001	-1.042619659547895E-001	8.1436629E-005
2	1	0	1	2.245539943272888E+001	-7.7600074E-001	-7.7606803E-001	-9.225968920007666E-002	7.1599796E-005
2	1	0	0	2.295599942008266E+001	-7.7099502E-001	-7.7104473E-001	-7.989525878171277E-002	6.1602819E-005
2	1	0	1	2.345659940743644E+001	-7.6598883E-001	-7.6604730E-001	-6.730816962514541E-002	5.1561241E-005
2	1	0	0	2.395719939479022E+001	-7.6098293E-001	-7.6104683E-001	-5.482280922234783E-002	4.1722724E-005
2	1	0	1	2.447529938170192E+001	-7.5580180E-001	-7.5584102E-001	-4.211082362309820E-002	3.1829088E-005
2	1	0	0	2.499359936860856E+001	-7.5061899E-001	-7.5065303E-001	-2.938800387249307E-002	2.2060194E-005
2	1	0	1	2.549419935596234E+001	-7.4561280E-001	-7.4564636E-001	-1.701875519692331E-002	1.2689973E-005
2	1	0	0	2.601229934287403E+001	-7.4043196E-001	-7.4045402E-001	-4.420181272601153E-003	3.2729411E-006
2	1	0	0	2.654789932934364E+001	-7.3507565E-001	-7.3510307E-001	8.795886147861906E-003	6.4658830E-006
2	1	0	0	2.706609931625280E+001	-7.2989380E-001	-7.2992069E-001	2.130301378928340E-002	1.5549511E-005
2	1	0	0	2.756679930360406E+001	-7.2488678E-001	-7.2492498E-001	3.364022158587648E-002	2.4386636E-005
2	1	0	1	2.806739929095784E+001	-7.1988082E-001	-7.1989900E-001	4.618695168466636E-002	3.3249940E-005
2	1	0	0	2.856799927831162E+001	-7.1487480E-001	-7.1491736E-001	5.826850111016357E-002	4.1657164E-005
2	1	0	1	2.906859926566540E+001	-7.0986861E-001	-7.0991480E-001	7.048459659308937E-002	5.0038059E-005
2	1	0	0	2.956919925301918E+001	-7.0486271E-001	-7.0489502E-001	8.307796004176490E-002	5.8561240E-005
2	1	0	1	3.006979924037296E+001	-6.9985664E-001	-6.9989884E-001	9.534231587543182E-002	6.6729976E-005
2	1	0	0	3.058799922728213E+001	-6.9467497E-001	-6.9472015E-001	1.077187867125120E-001	7.4834410E-005
2	1	0	1	3.110619921419129E+001	-6.8949264E-001	-6.8952912E-001	1.196631855794278E-001	8.2511251E-005
2	1	0	0	3.160679920154507E+001	-6.8448687E-001	-6.8452895E-001	1.312166459054946E-001	8.9821595E-005
2	1	0	1	3.210739918889885E+001	-6.7948067E-001	-6.7951918E-001	1.439674057147061E-001	9.7828612E-005
2	1	0	0	3.260799917625263E+001	-6.7447484E-001	-6.7452270E-001	1.561912969366941E-001	1.0535458E-004
2	1	0	1	3.310859916360641E+001	-6.6946858E-001	-6.6952205E-001	1.676425125177756E-001	1.1224036E-004
2	1	0	0	3.360919915096019E+001	-6.6446269E-001	-6.6450077E-001	1.792930529266819E-001	1.1914037E-004
2	1	0	1	3.410979913831397E+001	-6.5945655E-001	-6.5950519E-001	1.918947244647389E-001	1.2655556E-004
2	1	0	0	3.461049912566523E+001	-6.5444964E-001	-6.5450114E-001	2.032541612441499E-001	1.3303009E-004
2	1	0	0	3.511119911301648E+001	-6.4944261E-001	-6.4949942E-001	2.148121074470315E-001	1.3952034E-004
2	1	0	1	3.561179910037026E+001	-6.4443648E-001	-6.4449298E-001	2.269435012191448E-001	1.4626350E-004
2	1	0	0	3.611239908772404E+001	-6.3943064E-001	-6.3949412E-001	2.381460480565760E-001	1.5229300E-004
2	1	0	1	3.661299907507782E+001	-6.3442445E-001	-6.3449728E-001	2.499460908610489E-001	1.5859012E-004
2	1	0	0	3.711359906243160E+001	-6.2941861E-001	-6.2949455E-001	2.612231866839361E-001	1.6443858E-004
2	1	0	1	3.761419904978538E+001	-6.2441248E-001	-6.2448853E-001	2.724371551720531E-001	1.7013388E-004
2	1	0	0	3.811479903713916E+001	-6.1940664E-001	-6.1948848E-001	2.845572295220964E-001	1.7627992E-004
2	1	0	1	3.861549902449042E+001	-6.1439955E-001	-6.1448014E-001	2.953815293546853E-001	1.8150608E-004
2	1	0	1	3.911619901184167E+001	-6.0939264E-001	-6.0946846E-001	3.068403425287229E-001	1.8700951E-004
2	1	0	0	3.961679899919545E+001	-6.0438651E-001	-6.0445666E-001	3.182085902322767E-001	1.9234330E-004
2	1	0	1	4.011739898654923E+001	-5.9938061E-001	-5.9944952E-001	3.295368114069142E-001	1.9754068E-004
2	1	0	0	4.061799897390301E+001	-5.9437448E-001	-5.9444648E-001	3.411524033523152E-001	2.0279684E-004
2	1	0	1	4.111859896125679E+001	-5.8936852E-001	-5.8943546E-001	3.512365249134641E-001	2.0703126E-004
2	1	0	0	4.161919894861057E+001	-5.8436233E-001	-5.8443099E-001	3.613299273755235E-001	2.1117240E-004
2	1	0	1	4.211979893596435E+001	-5.7935637E-001	-5.7942337E-001	3.726908383688041E-001	2.1594578E-004
2	1	0	0	4.262039892331813E+001	-5.7435036E-001	-5.7442516E-001	3.837857614285434E-001	2.2045620E-004
2	1	0	0	4.312119891066686E+001	-5.6934237E-001	-5.6941050E-001	3.940029610310791E-001	2.2434942E-004
2	1	0	1	4.362179889802064E+001	-5.6433648E-001	-5.6440985E-001	4.038635263040362E-001	2.2794455E-004
2	1	0	0	4.412239888537442E+001	-5.5933040E-001	-5.5941290E-001	4.153059003874109E-001	2.3232748E-004
2	1	0	1	4.462299887272820E+001	-5.5432445E-001	-5.5440706E-001	4.253827875444394E-001	2.3583522E-004
2	1	0	0	4.512359886008198E+001	-5.4931831E-001	-5.4937828E-001	4.356217816286625E-001	2.3932115E-004
2	1	0	1	4.562419884743576E+001	-5.4431242E-001	-5.4437852E-001	4.455677374763249E-001	2.4255751E-004
2	1	0	0	4.612479883478954E+001	-5.3930628E-001	-5.3936607E-001	4.561198499877701E-001	2.4601558E-004
2	1	0	1	4.662539882214332E+001	-5.3430033E-001	-5.3437912E-001	4.661395171766429E-001	2.4909523E-004
2	1	0	0	4.712609880949458E+001	-5.2929330E-001	-5.2936000E-001	4.749524998459487E-001	2.5142086E-004
2	1	0	0	4.762679879684583E+001	-5.2428627E-001	-5.2436620E-001	4.851754188699893E-001	2.5440959E-004
2	1	0	1	4.812739878419961E+001	-5.1928031E-001	-5.1936299E-001	4.945790130359580E-001	2.5686604E-004
2	1	0	0	4.862799877155339E+001	-5.1427430E-001	-5.1435196E-001	5.042499223107191E-001	2.5936193E-004
2	1	0	1	4.912859875890717E+001	-5.0926811E-001	-5.0932533E-001	5.138413690615824E-001	2.6171241E-004
2	1	0	0	4.962919874626095E+001	-5.0426215E-001	-5.0433058E-001	5.235541160060055E-001	2.6404436E-004
2	1	0	1	5.012979873361473E+001	-4.9925610E-001	-4.9931765E-001	5.337887576515623E-001	2.6653014E-004
2	1	0	0	5.063039872096851E+001	-4.9425012E-001	-4.9432808E-001	5.430640936016093E-001	2.6845184E-004
2	1	0	1	5.113109870831977E+001	-4.8924315E-001	-4.8930109E-001	5.509691054469883E-001	2.6958977E-004
2	1	0	1	5.163179869567102E+001	-4.8423621E-001	-4.8430276E-001	5.593275169483842E-001	2.7088387E-004
2	1	0	0	5.213239868302480E+001	-4.7923025E-001	-4.7927254E-001	5.694347540959726E-001	2.7291445E-004
2	1	0	1	5.263299867037858E+001	-4.7422424E-001	-4.7427166E-001	5.766899867918038E-001	2.7350773E-004
2	1	0	0	5.313359865773236E+001	-4.6921828E-001	-4.6926105E-001	5.863266187142138E-001	2.7514025E-004
2	1	0	1	5.363419864508614E+001	-4.6421218E-001	-4.6426076E-001	5.943337279136980E-001	2.7592582E-004
2	1	0	0	5.413479863243992E+001	-4.5920619E-001	-4.5925942E-001	6.021833436290415E-001	2.7655836E-004
2	1	0	1	5.463539861979370E+001	-4.5420012E-001	-4.5426071E-001	6.117584364243758E-001	2.7789781E-004
2	1	0	0	5.513599860714749E+001	-4.4919407E-001	-4.4924012E-001	6.201093487705016E-001	2.7857799E-004
2	1	0	0	5.563679859449621E+001	-4.4418612E-001	-4.4423556E-001	6.275473516996470E-001	2.7877884E-004
2	1	0	1	5.613739858184999E+001	-4.3918011E-001	-4.3922710E-001	6.351183614565130E-001	2.7896120E-004
2	1	0	0	5.663799856920377E+001	-4.3417412E-001	-4.3421847E-001	6.434831517049879E-001	2.7941226E-004
2	1	0	1	5.713859855655755E+001	-4.2916808E-001	-4.2920592E-001	6.539763705818951E-001	2.8069052E-004
2	1	0	0	5.763919854391133E+001	-4.2416212E-001	-4.2420954E-001	6.609989391152961E-001	2.8040205E-004
2	1	0	1	5.813979853126511E+001	-4.1915610E-001	-4.1919810E-001	6.692948547997624E-001	2.8056712E-004
2	1	0	0	5.864039851861889E+001	-4.1415015E-001	-4.1419783E-001	6.778689510637861E-001	2.8077184E-004
2	1	0	1	5.914099850597268E+001	-4.0914410E-001	-4.0918255E-001	6.847349336118200E-001	2.8018159E-004
2	1	0	0	5.964169849332393E+001	-4.0413713E-001	-4.0418249E-001	6.919062250232200E-001	2.7965638E-004
2	1	0	0	6.014239848067518E+001	-3.9913017E-001	-3.9918268E-001	6.992295253548537E-001	2.7912032E-004
2	1	0	1	6.064299846802896E+001	-3.9412415E-001	-3.9417592E-001	7.069510965422303E-001	2.7866309E-004
2	1	0	0	6.114359845538274E+001	-3.8911808E-001	-3.8918179E-001	7.139811330523322E-001	2.7786844E-004
2	1	0	1	6.164419844273652E+001	-3.8411203E-001	-3.8416713E-001	7.210846760723761E-001	2.7701704E-004
2	1	0	0	6.214479843009030E+001	-3.7910596E-001	-3.7916103E-001	7.277562321249889E-001	2.7593679E-004
2	1	0	1	6.264539841744408E+001	-3.7409997E-001	-3.7414825E-001	7.334245205673913E-001	2.7440951E-004
2	1	0	0	6.314599840479787E+001	-3.6909398E-001	-3.6912888E-001	7.410045875964909E-001	2.7352621E-004
2	1	0	1	6.364669839214912E+001	-3.6408702E-001	-3.6414790E-001	7.495158151760091E-001	2.7293462E-004
2	1	0	1	6.414739837950037E+001	-3.5908005E-001	-3.5913417E-001	7.549507614403191E-001	2.7112861E-004
2	1	0	0	6.464799836685415E+001	-3.5407403E-001	-3.5410845E-001	7.603542000747030E-001	2.6924786E-004
2	1	0	1	6.514859835420793E+001	-3.4906802E-001	-3.4911785E-001	7.686995120032734E-001	2.6836671E-004
2	1	0	0	6.564919834156171E+001	-3.4406200E-001	-3.4409276E-001	7.752871799321639E-001	2.6677072E-004
2	1	0	1	6.614979832891549E+001	-3.3905602E-001	-3.3909491E-001	7.798192601909051E-001	2.6443275E-004
2	1	0	0	6.665039831626927E+001	-3.3404997E-001	-3.3407947E-001	7.841342949197596E-001	2.6196317E-004
2	1	0	1	6.715099830362306E+001	-3.2904398E-001	-3.2906014E-001	7.921827777389883E-001	2.6067576E-004
2	1	0	0	6.765169829097431E+001	-3.2403696E-001	-3.2407787E-001	7.990530684302595E-001	2.5895541E-004
2	1	0	0	6.815239827832556E+001	-3.1902990E-001	-3.1908059E-001	8.044204800329169E-001	2.5667498E-004
2	1	0	1	6.865299826567934E+001	-3.1402391E-001	-3.1406835E-001	8.099289989623779E-001	2.5437307E-004
2	1	0	0	6.915359825303312E+001	-3.0901787E-001	-3.0906650E-001	8.147171921308338E-001	2.5180180E-004
2	1	0	1	6.965419824038690E+001	-3.0401188E-001	-3.0406871E-001	8.198047913113975E-001	2.4927699E-004
2	1	0	0	7.015479822774068E+001	-2.9900584E-001	-2.9905465E-001	8.251772355519922E-001	2.4677310E-004
2	1	0	1	7.065539821509446E+001	-2.9399985E-001	-2.9402867E-001	8.285604922747289E-001	2.4362054E-004
2	1	0	0	7.115599820244825E+001	-2.8899384E-001	-2.8904626E-001	8.310312354752778E-001	2.4020647E-004
2	1	0	1	7.165659818980203E+001	-2.8398782E-001	-2.8404656E-001	8.387963074391056E-001	2.3825721E-004
2	1	0	1	7.215739817715075E+001	-2.7897987E-001	-2.7901992E-001	8.444285811705381E-001	2.3561240E-004
2	1	0	0	7.265799816450453E+001	-2.7397382E-001	-2.7402556E-001	8.477008247549023E-001	2.3229170E-004
2	1	0	1	7.315859815185831E+001	-2.6896781E-001	-2.6900929E-001	8.517311840065895E-001	2.2912360E-004
2	1	0	0	7.365919813921209E+001	-2.6396182E-001	-2.6400948E-001	8.552308195882947E-001	2.2578904E-004
2	1	0	1	7.415979812656587E+001	-2.5895578E-001	-2.5900358E-001	8.598036181012610E-001	2.2269221E-004
2	1	0	0	7.466039811391965E+001	-2.5394973E-001	-2.5399405E-001	8.626312241439908E-001	2.1910320E-004
2	1	0	1	7.516099810127344E+001	-2.4894373E-001	-2.4899508E-001	8.671843901161767E-001	2.1592465E-004
2	1	0	0	7.566159808862722E+001	-2.4393769E-001	-2.4400438E-001	8.718771876808393E-001	2.1274186E-004
2	1	0	1	7.616229807597847E+001	-2.3893075E-001	-2.3901267E-001	8.741345598366284E-001	2.0892924E-004
2	1	0	1	7.666299806332972E+001	-2.3392373E-001	-2.3400560E-001	8.770677013250552E-001	2.0523876E-004
2	1	0	0	7.716359805068350E+001	-2.2891770E-001	-2.2899719E-001	8.811151579966481E-001	2.0177290E-004
2	1	0	1	7.766419803803728E+001	-2.2391173E-001	-2.2397892E-001	8.821417838649381E-001	1.9758116E-004
2	1	0	0	7.816479802539106E+001	-2.1890572E-001	-2.1898004E-001	8.873059186640055E-001	1.9430229E-004
2	1	0	1	7.866539801274484E+001	-2.1389970E-001	-2.1397202E-001	8.904772566081913E-001	1.9053722E-004
2	1	0	0	7.916599800009863E+001	-2.0889373E-001	-2.0896542E-001	8.922345664041298E-001	1.8644617E-004
2	1	0	1	7.966659798745241E+001	-2.0388769E-001	-2.0396690E-001	8.947818752731305E-001	1.8250589E-004
2	1	0	0	8.016729797480366E+001	-1.9888063E-001	-1.9894344E-001	8.984488159429018E-001	1.7874049E-004
2	1	0	0	8.066799796215491E+001	-1.9387370E-001	-1.9395421E-001	9.002161190640336E-001	1.7460070E-004
2	1	0	1	8.116859794950869E+001	-1.8886767E-001	-1.8893844E-001	9.030099434463894E-001	1.7061329E-004
2	1	0	0	8.166919793686247E+001	-1.8386167E-001	-1.8393415E-001	9.075309406255538E-001	1.6692594E-004
2	1	0	1	8.216979792421625E+001	-1.7885563E-001	-1.7891218E-001	9.100199656200729E-001	1.6281365E-004
2	1	0	0	8.267039791157003E+001	-1.7384966E-001	-1.7390867E-001	9.092507182623706E-001	1.5812658E-004
2	1	0	1	8.317099789892382E+001	-1.6884360E-001	-1.6889763E-001	9.128905757241395E-001	1.5418505E-004
2	1	0	0	8.367159788627760E+001	-1.6383758E-001	-1.6389067E-001	9.134354052824665E-001	1.4970354E-004
2	1	0	1	8.417219787363138E+001	-1.5883158E-001	-1.5888065E-001	9.162035984788250E-001	1.4556703E-004
2	1	0	1	8.467299786098010E+001	-1.5382360E-001	-1.5385979E-001	9.193309045409697E-001	1.4144806E-004
2	1	0	0	8.517359784833388E+001	-1.4881761E-001	-1.4886327E-001	9.202379568855016E-001	1.3698963E-004
2	1	0	1	8.567419783568766E+001	-1.4381154E-001	-1.4385776E-001	9.184595778832847E-001	1.3212753E-004
2	1	0	0	8.617479782304144E+001	-1.3880558E-001	-1.3884105E-001	9.219969227197051E-001	1.2801102E-004
2	1	0	1	8.667539781039523E+001	-1.3379951E-001	-1.3381845E-001	9.256564514497905E-001	1.2386990E-004
2	1	0	0	8.717599779774901E+001	-1.2879349E-001	-1.2882861E-001	9.268221854825310E-001	1.1940122E-004
2	1	0	1	8.767659778510279E+001	-1.2378749E-001	-1.2380819E-001	9.259582785308536E-001	1.1464122E-004
2	1	0	0	8.817719777245657E+001	-1.1878148E-001	-1.1880309E-001	9.272468499137183E-001	1.1015980E-004
2	1	0	1	8.867789775980782E+001	-1.1377451E-001	-1.1380413E-001	9.311278318645124E-001	1.0596620E-004
2	1	0	1	8.917859774715907E+001	-1.0876748E-001	-1.0880440E-001	9.305579890411764E-001	1.0124881E-004
2	1	0	0	8.967919773451285E+001	-1.0376149E-001	-1.0379479E-001	9.331003198932919E-001	9.6850956E-005
2	1	0	1	9.017979772186663E+001	-9.8755457E-002	-9.8785184E-002	9.340461205488211E-001	9.2269918E-005
2	1	0	0	9.068039770922042E+001	-9.3749456E-002	-9.3759164E-002	9.357587887708192E-001	8.7735963E-005
2	1	0	1	9.118099769657420E+001	-8.8743441E-002	-8.8782437E-002	9.350520586243452E-001	8.3016203E-005
2	1	0	0	9.168159768392798E+001	-8.3737433E-002	-8.3775267E-002	9.349360961481956E-001	7.8324520E-005
2	1	0	1	9.218219767128176E+001	-7.8731403E-002	-7.8783669E-002	9.395592136645927E-001	7.4021918E-005
2	1	0	0	9.268289765863301E+001	-7.3724411E-002	-7.3746845E-002	9.401391335005300E-001	6.9332295E-005
2	1	0	0	9.318359764598426E+001	-6.8717398E-002	-6.8746530E-002	9.396425183959298E-001	6.4597160E-005
2	1	0	1	9.368419763333804E+001	-6.3711390E-002	-6.3764408E-002	9.418394883337946E-001	6.0055838E-005
2	1	0	0	9.418479762069182E+001	-5.8705375E-002	-5.8743540E-002	9.415295854414518E-001	5.5308781E-005
2	1	0	1	9.468539760804561E+001	-5.3699370E-002	-5.3720050E-002	9.435299746759105E-001	5.0686478E-005
2	1	0	0	9.518599759539939E+001	-4.8693359E-002	-4.8723318E-002	9.468260598672824E-001	4.6132507E-005
2	1	0	1	9.568659758275317E+001	-4.3687321E-002	-4.3726914E-002	9.450863373825520E-001	4.1325708E-005
2	1	0	0	9.618719757010695E+001	-3.8681351E-002	-3.8714252E-002	9.451075685862964E-001	3.6589132E-005
2	1	0	1	9.668789755745820E+001	-3.3674344E-002	-3.3711661E-002	9.444274974763860E-001	3.1838219E-005
2	1	0	1	9.718859754480945E+001	-2.8667346E-002	-2.8715461E-002	9.459694602646451E-001	2.7163949E-005
2	1	0	0	9.768919753216323E+001	-2.3661360E-002	-2.3685608E-002	9.486433841118127E-001	2.2469196E-005
2	1	0	1	9.818979751951701E+001	-1.8655309E-002	-1.8681278E-002	9.478730580690018E-001	1.7707480E-005
2	1	0	0	9.869039750687080E+001	-1.3649300E-002	-1.3690400E-002	9.485569135198775E-001	1.2986124E-005
2	1	0	1	9.919099749422458E+001	-8.6432919E-003	-8.7011615E-003	9.525374874842054E-001	8.2881825E-006
2	1	0	0	9.969159748157836E+001	-3.6372812E-003	-3.6906521E-003	9.505010901636926E-001	3.5079688E-006
2	1	0	1	1.001921974689321E+002	1.3688731E-003	1.3383814E-003	9.495999114790710E-001	1.2709269E-006
2	1	0	0	1.006927974562859E+002	6.3747526E-003	6.3226786E-003	9.520207214922536E-001	6.0193211E-006
2	1	0	1	1.011934974436372E+002	1.1381668E-002	1.1335292E-002	9.534576098618253E-001	1.0807720E-005
2	1	0	1	1.016941974309884E+002	1.6388685E-002	1.6339095E-002	9.535655759918118E-001	1.5580399E-005
2	1	0	0	1.021947974183422E+002	2.1394672E-002	2.1358654E-002	9.536848773703515E-001	2.0369425E-005
2	1	0	1	1.026953974056960E+002	2.6400659E-002	2.6356889E-002	9.567549923618914E-001	2.5217085E-005
2	1	0	0	1.031959973930498E+002	3.1406652E-002	3.1371236E-002	9.580946896349225E-001	3.0056615E-005
2	1	0	1	1.036965973804035E+002	3.6412630E-002	3.6364269E-002	9.552697693244046E-001	3.4737688E-005
2	1	0	0	1.041971973677573E+002	4.1418657E-002	4.1367941E-002	9.563690637304472E-001	3.9563020E-005
2	1	0	1	1.046977973551111E+002	4.6424605E-002	4.6389695E-002	9.556681826718840E-001	4.4333156E-005
2	1	0	0	1.051984973424624E+002	5.1431622E-002	5.1393293E-002	9.552085447187539E-001	4.9091312E-005
2	1	0	0	1.056991973298136E+002	5.6438610E-002	5.6400038E-002	9.574479310329238E-001	5.4000098E-005
2	1	0	1	1.061997973171674E+002	6.1444607E-002	6.1405726E-002	9.562220460565358E-001	5.8717509E-005
2	1	0	0	1.067003973045212E+002	6.6450551E-002	6.6403031E-002	9.548284237119251E-001	6.3403502E-005
2	1	0	1	1.072009972918750E+002	7.1456537E-002	7.1423352E-002	9.577817091312344E-001	6.8407979E-005
2	1	0	0	1.077015972792287E+002	7.6462567E-002	7.6441713E-002	9.588060771466616E-001	7.3292780E-005
2	1	0	1	1.082021972665825E+002	8.1468575E-002	8.1431836E-002	9.598866362383749E-001	7.8165329E-005
2	1	0	0	1.087027972539363E+002	8.6474568E-002	8.6445540E-002	9.605471447216773E-001	8.3035018E-005
2	1	0	1	1.092033972412901E+002	9.1480546E-002	9.1445990E-002	9.591074585663284E-001	8.7706532E-005
2	1	0	1	1.097041972286388E+002	9.6488476E-002	9.6459955E-002	9.600281699517289E-001	9.2604278E-005
2	1	0	0	1.100044972210526E+002	9.9491596E-002	9.9438690E-002	9.618571771132398E-001	9.5645817E-005
2	1	0	0	1.100529972198274E+002	1.0001732E-001	9.9931270E-002	9.559304118156433E-001	9.5527343E-005