EC-Lab ASCII FILE
Nb header lines : 55                          

I-V Characterization

Run on channel : 1 (SN 6514)
User : 
CE vs. WE compliance from -10 V to 10 V
Electrode connection : standard
Ewe ctrl range : min = -1.10 V, max = 0.20 V
Safety Limits :
	Do not start on E overload
Acquisition started on : 06/15/2016 19:09:27
Saved on :
	File : B125-G54-UN-G-D1GB-C14 FW 100mVs dark_C01.mpr
	Directory : E:\EC-Lab measurements\B125-G54-UN-G-D1GB\
	Host : 10.0.2.15
Device : VSP (SN 0295)
Address : USB
EC-Lab for windows v11.01 (software)
Internet server v11.00 (firmware)
Command interpretor v11.00 (firmware)
Electrode material : 
Initial state : 
Electrolyte : 
Comments : 
Electrode surface area : 0.001 cm²
Characteristic mass : 0.001 g
Equivalent Weight : 0.000 g/eq.
Density : 0.000 g/cm3
tR (h:m:s)          0:00:0.0000         
dER/dt (mV/h)       0.0                 
dER (mV)            0                   
dtR (s)             0.0000              
dE/dt               100.000             
dE/dt unit          mV/s                
Ei (V)              0.100               
vs.                 Ref                 
EL (V)              -1.000              
vs.                 Ref                 
record              <I>                 
dI                  0.000               
unit dI             µA                  
tI (s)              0.1000              
step percent        100                 
N                   100                 
E range min (V)     -1.100              
E range max (V)     0.200               
I Range             Auto                
I Range min         Unset               
I Range max         Unset               
I Range init        Unset               
Bandwidth           5                   

mode	ox/red	error	control changes	time/s	control/V	Ewe/V	<I>/mA	P/W
2	0	0	1	8.039999796892516E-002	9.6993521E-002	9.6900299E-002	1.308328821323812E-003	1.2677745E-007
2	0	0	0	1.056999973297934E-001	9.4465211E-002	9.4439149E-002	1.165957548136900E-003	1.1011204E-007
2	0	0	0	1.710999956776504E-001	8.7929122E-002	8.7912254E-002	9.097023436724014E-004	7.9973987E-008
2	0	0	1	2.363999940280337E-001	8.1398934E-002	8.1369139E-002	7.197462502144363E-004	5.8565131E-008
2	0	0	1	2.863999927649274E-001	7.6396704E-002	7.6367863E-002	5.970221665881070E-004	4.5593307E-008
2	0	0	0	3.364999914992950E-001	7.1386509E-002	7.1345635E-002	4.921704013869000E-004	3.5114208E-008
2	0	0	0	3.865999902336625E-001	6.6378236E-002	6.6336699E-002	3.990220283445270E-004	2.6469804E-008
2	0	0	0	4.365999889705563E-001	6.1375830E-002	6.1333079E-002	3.172564173692764E-004	1.9458312E-008
2	0	0	1	4.866999877049238E-001	5.6367833E-002	5.6334626E-002	2.448754140046551E-004	1.3794965E-008
2	0	0	1	5.367999864392914E-001	5.1357362E-002	5.1311158E-002	1.817948145648703E-004	9.3281027E-009
2	0	0	1	5.867999851761851E-001	4.6355389E-002	4.6301257E-002	1.238411649553373E-004	5.7340017E-009
2	0	0	1	6.367999839130789E-001	4.1359074E-002	4.1313343E-002	7.174638435853682E-005	2.9640830E-009
2	0	0	0	6.869999826449202E-001	3.6336713E-002	3.6289092E-002	2.492714982605618E-005	9.0458363E-010
2	0	0	0	7.369999813818140E-001	3.1336755E-002	3.1281464E-002	-1.750712927256759E-005	5.4764865E-010
2	0	0	0	7.869999801187078E-001	2.6338194E-002	2.6292128E-002	-5.796470042063293E-005	1.5240154E-009
2	0	0	1	8.371999788505491E-001	2.1315835E-002	2.1269262E-002	-9.352491314446260E-005	1.9892059E-009
2	0	0	1	8.871999775874428E-001	1.6318094E-002	1.6261062E-002	-1.269390372787868E-004	2.0641635E-009
2	0	0	1	9.371999763243366E-001	1.1317321E-002	1.1263606E-002	-1.592697564938429E-004	1.7939518E-009
2	0	0	0	9.872999750587041E-001	6.3056569E-003	6.2471521E-003	-1.893665340373385E-004	1.1830016E-009
2	0	0	0	1.037399973793072E+000	1.2990338E-003	1.2369268E-003	-2.179822537961267E-004	2.6962810E-010
2	0	0	0	1.087399972529965E+000	-3.7033611E-003	-3.7623129E-003	-2.452153956749780E-004	9.2257707E-010
2	0	0	1	1.137499971264333E+000	-8.7130331E-003	-8.7723555E-003	-2.711834029448567E-004	2.3789173E-009
2	0	0	1	1.187599969998701E+000	-1.3721895E-002	-1.3777522E-002	-2.965923276415368E-004	4.0863073E-009
2	0	0	1	1.237599968735594E+000	-1.8724302E-002	-1.8757902E-002	-3.211214891832969E-004	6.0235656E-009
2	0	0	0	1.287699967469962E+000	-2.3731761E-002	-2.3765294E-002	-3.449936879703110E-004	8.1988762E-009
2	0	0	0	1.337799966204329E+000	-2.8742639E-002	-2.8778240E-002	-3.687795840041134E-004	1.0612827E-008
2	0	0	0	1.387799964941223E+000	-3.3744227E-002	-3.3792041E-002	-3.921970929553330E-004	1.3253140E-008
2	0	0	0	1.437799963678117E+000	-3.8741175E-002	-3.8778272E-002	-4.155485724361093E-004	1.6114255E-008
2	0	0	1	1.487999962409958E+000	-4.3763574E-002	-4.3813571E-002	-4.387991709621404E-004	1.9225359E-008
2	0	0	1	1.537999961146852E+000	-4.8762985E-002	-4.8805814E-002	-4.614042001746706E-004	2.2519208E-008
2	0	0	1	1.587999959883746E+000	-5.3762134E-002	-5.3796571E-002	-4.842045661065729E-004	2.6048545E-008
2	0	0	0	1.638199958615587E+000	-5.8784347E-002	-5.8826726E-002	-5.065434378144654E-004	2.9798292E-008
2	0	0	0	1.688199957352481E+000	-6.3781686E-002	-6.3824728E-002	-5.284999936305797E-004	3.3731368E-008
2	0	0	0	1.738199956089375E+000	-6.8782844E-002	-6.8823151E-002	-5.537708756779567E-004	3.8112258E-008
2	0	0	1	1.788299954823742E+000	-7.3794171E-002	-7.3829830E-002	-5.768046316503533E-004	4.2585388E-008
2	0	0	1	1.838399953558110E+000	-7.8801356E-002	-7.8839384E-002	-6.013910806094997E-004	4.7413302E-008
2	0	0	1	1.888399952295003E+000	-8.3803780E-002	-8.3856262E-002	-6.262233137990774E-004	5.2512746E-008
2	0	0	0	1.938499951029371E+000	-8.8812873E-002	-8.8861294E-002	-6.534595934260361E-004	5.8067265E-008
2	0	0	0	1.988599949763739E+000	-9.3822084E-002	-9.3853146E-002	-6.791096932958398E-004	6.3736579E-008
2	0	0	0	2.038599948500632E+000	-9.8824568E-002	-9.8836519E-002	-7.051351107982410E-004	6.9693101E-008
2	0	0	1	2.088699947235000E+000	-1.0383155E-001	-1.0386651E-001	-7.292246684083709E-004	7.5742022E-008
2	0	0	1	2.138799945969367E+000	-1.0884300E-001	-1.0887161E-001	-7.546721807137318E-004	8.2162373E-008
2	0	0	1	2.188799944706261E+000	-1.1384419E-001	-1.1387870E-001	-7.815534635362848E-004	8.9002292E-008
2	0	0	1	2.238799943443155E+000	-1.1884167E-001	-1.1887159E-001	-8.087020715021572E-004	9.6131700E-008
2	0	0	0	2.288999942174996E+000	-1.2386402E-001	-1.2390058E-001	-8.412115569721851E-004	1.0422660E-007
2	0	0	0	2.338999940911890E+000	-1.2886286E-001	-1.2890257E-001	-8.660767329025789E-004	1.1163952E-007
2	0	0	0	2.388999939648784E+000	-1.3386235E-001	-1.3388795E-001	-8.976919082533084E-004	1.2019012E-007
2	0	0	1	2.439199938380625E+000	-1.3888477E-001	-1.3891000E-001	-9.249498924343378E-004	1.2848479E-007
2	0	0	1	2.489199937117519E+000	-1.4388163E-001	-1.4393525E-001	-9.575712366002645E-004	1.3782825E-007
2	0	0	1	2.539199935854413E+000	-1.4888336E-001	-1.4892447E-001	-9.896563179115072E-004	1.4738404E-007
2	0	0	0	2.589299934588780E+000	-1.5389392E-001	-1.5393837E-001	-1.025804994568053E-003	1.5791075E-007
2	0	0	0	2.639399933323148E+000	-1.5890183E-001	-1.5893948E-001	-1.058531429229716E-003	1.6824244E-007
2	0	0	0	2.689399932060041E+000	-1.6390401E-001	-1.6395944E-001	-1.089861719465023E-003	1.7869313E-007
2	0	0	1	2.739499930794409E+000	-1.6891268E-001	-1.6896591E-001	-1.127750828561289E-003	1.9055145E-007
2	0	0	1	2.789599929528777E+000	-1.7392249E-001	-1.7398298E-001	-1.164489402521150E-003	2.0260133E-007
2	0	0	1	2.839599928265670E+000	-1.7892505E-001	-1.7898649E-001	-1.202051046439232E-003	2.1515089E-007
2	0	0	0	2.889699927000038E+000	-1.8393146E-001	-1.8399954E-001	-1.239325666465337E-003	2.2803535E-007
2	0	0	0	2.939799925734405E+000	-1.8894343E-001	-1.8900312E-001	-1.277420784399565E-003	2.4143651E-007
2	0	0	0	2.989799924471299E+000	-1.9394398E-001	-1.9400950E-001	-1.321443898117149E-003	2.5637266E-007
2	0	0	0	3.039799923208193E+000	-1.9894172E-001	-1.9901310E-001	-1.356383243973185E-003	2.6993803E-007
2	0	0	1	3.089999921940034E+000	-2.0396422E-001	-2.0403144E-001	-1.398859996829260E-003	2.8541140E-007
2	0	0	1	3.139999920676928E+000	-2.0896278E-001	-2.0905393E-001	-1.444092185078790E-003	3.0189315E-007
2	0	0	1	3.189999919413822E+000	-2.1396297E-001	-2.1402566E-001	-1.488995434234752E-003	3.1868322E-007
2	0	0	0	3.240099918148189E+000	-2.1897505E-001	-2.1903042E-001	-1.530099587213833E-003	3.3513837E-007
2	0	0	0	3.290199916882557E+000	-2.2398150E-001	-2.2406587E-001	-1.582814093351113E-003	3.5465462E-007
2	0	0	0	3.340199915619451E+000	-2.2898370E-001	-2.2905837E-001	-1.631187435865756E-003	3.7363714E-007
2	0	0	1	3.390299914353818E+000	-2.3399378E-001	-2.3405686E-001	-1.675232724626274E-003	3.9209971E-007
2	0	0	1	3.440399913088186E+000	-2.3900221E-001	-2.3906834E-001	-1.726864621939351E-003	4.1283866E-007
2	0	0	1	3.490399911825079E+000	-2.4400450E-001	-2.4407829E-001	-1.781834571003282E-003	4.3490715E-007
2	0	0	0	3.540499910559447E+000	-2.4901254E-001	-2.4905702E-001	-1.830341154464066E-003	4.5585932E-007
2	0	0	0	3.590599909293815E+000	-2.5402313E-001	-2.5408104E-001	-1.884061308131239E-003	4.7870424E-007
2	0	0	0	3.640599908030708E+000	-2.5902519E-001	-2.5908020E-001	-1.940827871906876E-003	5.0283006E-007
2	0	0	0	3.690599906767602E+000	-2.6402122E-001	-2.6408121E-001	-1.997398686000269E-003	5.2747544E-007
2	0	0	1	3.740799905499443E+000	-2.6904374E-001	-2.6909894E-001	-2.054386363591853E-003	5.5283317E-007
2	0	0	1	3.790799904236337E+000	-2.7404371E-001	-2.7408585E-001	-2.111056159325445E-003	5.7861064E-007
2	0	0	1	3.840799902973231E+000	-2.7904239E-001	-2.7910244E-001	-2.169745932207250E-003	6.0558142E-007
2	0	0	0	3.890999901705072E+000	-2.8406462E-001	-2.8410617E-001	-2.233979565682692E-003	6.3468735E-007
2	0	0	0	3.940999900441966E+000	-2.8906259E-001	-2.8910962E-001	-2.301193540715315E-003	6.6529719E-007
2	0	0	0	3.990999899178860E+000	-2.9406303E-001	-2.9411268E-001	-2.369400862387683E-003	6.9687087E-007
2	0	0	1	4.041099897913227E+000	-2.9907477E-001	-2.9912978E-001	-2.435777767132986E-003	7.2861366E-007
2	0	0	1	4.091199896647595E+000	-3.0408183E-001	-3.0413181E-001	-2.496104811342853E-003	7.5914488E-007
2	0	0	1	4.141199895384489E+000	-3.0908397E-001	-3.0914113E-001	-2.563448029988646E-003	7.9246723E-007
2	0	0	0	4.191299894118856E+000	-3.1409356E-001	-3.1415170E-001	-2.636616990737493E-003	8.2829774E-007
2	0	0	0	4.241399892853224E+000	-3.1910267E-001	-3.1915435E-001	-2.713734177184984E-003	8.6610009E-007
2	0	0	0	4.291399891590117E+000	-3.2410502E-001	-3.2415232E-001	-2.790310750546823E-003	9.0448572E-007
2	0	0	1	4.341499890324485E+000	-3.2911223E-001	-3.2913890E-001	-2.867831293955306E-003	9.4391487E-007
2	0	0	1	4.391599889058853E+000	-3.3412349E-001	-3.3414760E-001	-2.952617663703000E-003	9.8661008E-007
2	0	0	1	4.441599887795746E+000	-3.3912471E-001	-3.3916330E-001	-3.033631015249871E-003	1.0288963E-006
2	0	0	1	4.491599886532640E+000	-3.4412181E-001	-3.4416801E-001	-3.116969261431396E-003	1.0727611E-006
2	0	0	0	4.541799885264481E+000	-3.4914425E-001	-3.4919229E-001	-3.194118210487422E-003	1.1153614E-006
2	0	0	0	4.591799884001375E+000	-3.5414377E-001	-3.5419619E-001	-3.284097097108390E-003	1.1632147E-006
2	0	0	0	4.641799882738269E+000	-3.5914260E-001	-3.5919368E-001	-3.374971660122395E-003	1.2122684E-006
2	0	0	1	4.691999881470110E+000	-3.6416501E-001	-3.6421734E-001	-3.459101396965342E-003	1.2598647E-006
2	0	0	1	4.741999880207004E+000	-3.6916226E-001	-3.6920619E-001	-3.556576187713559E-003	1.3131099E-006
2	0	0	1	4.791999878943898E+000	-3.7416348E-001	-3.7421468E-001	-3.649885397425119E-003	1.3658407E-006
2	0	0	0	4.842099877678265E+000	-3.7917474E-001	-3.7922162E-001	-3.743613531685494E-003	1.4196592E-006
2	0	0	0	4.892199876412633E+000	-3.8418227E-001	-3.8423946E-001	-3.847482046391258E-003	1.4783544E-006
2	0	0	0	4.942199875149527E+000	-3.8918447E-001	-3.8923350E-001	-3.948425463325553E-003	1.5368595E-006
2	0	0	1	4.992299873883894E+000	-3.9419344E-001	-3.9422897E-001	-4.053482904510547E-003	1.5980004E-006
2	0	0	1	5.042399872618262E+000	-3.9920300E-001	-3.9927343E-001	-4.166079197639406E-003	1.6634048E-006
2	0	0	1	5.092399871355155E+000	-4.0420499E-001	-4.0426016E-001	-4.283525377164379E-003	1.7316587E-006
2	0	0	0	5.142499870089523E+000	-4.0921217E-001	-4.0924078E-001	-4.397034731751251E-003	1.7994460E-006
2	0	0	0	5.192599868823891E+000	-4.1422391E-001	-4.1427407E-001	-4.500260985109427E-003	1.8643415E-006
2	0	0	0	5.242599867560784E+000	-4.1922498E-001	-4.1928855E-001	-4.615281135366106E-003	1.9351346E-006
2	0	0	0	5.292599866297678E+000	-4.2422217E-001	-4.2426693E-001	-4.726397851628920E-003	2.0052544E-006
2	0	0	1	5.342799865029519E+000	-4.2924482E-001	-4.2928529E-001	-4.852963659833398E-003	2.0833058E-006
2	0	0	1	5.392799863766413E+000	-4.3424323E-001	-4.3428552E-001	-4.981610328990527E-003	2.1634412E-006
2	0	0	1	5.442799862503307E+000	-4.3924299E-001	-4.3928549E-001	-5.107190194856226E-003	2.2435145E-006
2	0	0	0	5.492999861235148E+000	-4.4426548E-001	-4.4430992E-001	-5.233290357140763E-003	2.3252028E-006
2	0	0	0	5.542999859972042E+000	-4.4926247E-001	-4.4930211E-001	-5.372807473423134E-003	2.4140138E-006
2	0	0	0	5.592999858708936E+000	-4.5426390E-001	-4.5431018E-001	-5.505676091442188E-003	2.5012846E-006
2	0	0	1	5.643099857443303E+000	-4.5927483E-001	-4.5932227E-001	-5.643533009842237E-003	2.5922004E-006
2	0	0	1	5.693199856177671E+000	-4.6428239E-001	-4.6431944E-001	-5.797255948786523E-003	2.6917787E-006
2	0	0	1	5.743199854914565E+000	-4.6928456E-001	-4.6932554E-001	-5.935773587900040E-003	2.7858102E-006
2	0	0	0	5.793299853648932E+000	-4.7429329E-001	-4.7434047E-001	-6.092016267017400E-003	2.8896898E-006
2	0	0	0	5.843399852383300E+000	-4.7930351E-001	-4.7935367E-001	-6.255238970884591E-003	2.9984717E-006
2	0	0	0	5.893399851120193E+000	-4.8430577E-001	-4.8436323E-001	-6.428135645041966E-003	3.1135526E-006
2	0	0	1	5.943499849854561E+000	-4.8931205E-001	-4.8938194E-001	-6.593799496114119E-003	3.2268863E-006
2	0	0	1	5.993599848588929E+000	-4.9432412E-001	-4.9440262E-001	-6.770747695112066E-003	3.3474753E-006
2	0	0	1	6.043599847325822E+000	-4.9932435E-001	-4.9939477E-001	-6.954149131483664E-003	3.4728657E-006
2	0	0	1	6.093599846062716E+000	-5.0432259E-001	-5.0439894E-001	-7.126949429863846E-003	3.5948258E-006
2	0	0	0	6.143799844794557E+000	-5.0934500E-001	-5.0940692E-001	-7.317087456419819E-003	3.7273751E-006
2	0	0	0	6.193799843531451E+000	-5.1434350E-001	-5.1441181E-001	-7.514481321261639E-003	3.8655380E-006
2	0	0	0	6.243799842268345E+000	-5.1934320E-001	-5.1941901E-001	-7.704874268439507E-003	4.0020582E-006
2	0	0	1	6.293899841002712E+000	-5.2435595E-001	-5.2442485E-001	-7.909303245535487E-003	4.1478352E-006
2	0	0	1	6.343999839737080E+000	-5.2936172E-001	-5.2942270E-001	-8.115939548478224E-003	4.2967627E-006
2	0	0	1	6.393999838473974E+000	-5.3436434E-001	-5.3442824E-001	-8.325079358259511E-003	4.4491576E-006
2	0	0	0	6.444099837208341E+000	-5.3937453E-001	-5.3944319E-001	-8.540466623809376E-003	4.6070968E-006
2	0	0	0	6.494199835942709E+000	-5.4438323E-001	-5.4445767E-001	-8.777732874392048E-003	4.7791041E-006
2	0	0	0	6.544199834679603E+000	-5.4938507E-001	-5.4944199E-001	-9.009343336452980E-003	4.9501114E-006
2	0	0	1	6.594299833413970E+000	-5.5439341E-001	-5.5447334E-001	-9.253770925986185E-003	5.1309694E-006
2	0	0	1	6.644399832148338E+000	-5.5940348E-001	-5.5948430E-001	-9.501706037277555E-003	5.3160552E-006
2	0	0	1	6.694399830885232E+000	-5.6440544E-001	-5.6446522E-001	-9.754433240867628E-003	5.5060382E-006
2	0	0	1	6.744399829622125E+000	-5.6940216E-001	-5.6946778E-001	-1.000923671204786E-002	5.6999379E-006
2	0	0	0	6.809599827975035E+000	-5.7592732E-001	-5.7597798E-001	-1.036652258182101E-002	5.9708887E-006
2	0	0	0	6.874599826332997E+000	-5.8242428E-001	-5.8247054E-001	-1.074798642624814E-002	6.2603854E-006
2	0	0	1	6.924699825067364E+000	-5.8743459E-001	-5.8747816E-001	-1.104207348841654E-002	6.4869769E-006
2	0	0	1	6.974799823801732E+000	-5.9244275E-001	-5.9251106E-001	-1.134686239948235E-002	6.7231413E-006
2	0	0	1	7.024799822538625E+000	-5.9744525E-001	-5.9750390E-001	-1.165413887122077E-002	6.9633934E-006
2	0	0	0	7.074899821272993E+000	-6.0245311E-001	-6.0250437E-001	-1.196325214084183E-002	7.2079119E-006
2	0	0	0	7.124999820007361E+000	-6.0746402E-001	-6.0752958E-001	-1.231030880626827E-002	7.4788768E-006
2	0	0	0	7.174999818744254E+000	-6.1246550E-001	-6.1252999E-001	-1.265351174599759E-002	7.7506556E-006
2	0	0	0	7.224999817481148E+000	-6.1746264E-001	-6.1752242E-001	-1.299011185161569E-002	8.0216851E-006
2	0	0	1	7.275199816212989E+000	-6.2248462E-001	-6.2255603E-001	-1.336184765969703E-002	8.3184987E-006
2	0	0	1	7.325199814949883E+000	-6.2748396E-001	-6.2754834E-001	-1.374516554735350E-002	8.6257560E-006
2	0	0	1	7.375199813686777E+000	-6.3248312E-001	-6.3254201E-001	-1.412867296768659E-002	8.9369796E-006
2	0	0	0	7.425399812418618E+000	-6.3750553E-001	-6.3757521E-001	-1.450582956355091E-002	9.2485570E-006
2	0	0	0	7.475399811155512E+000	-6.4250302E-001	-6.4255512E-001	-1.492454648925561E-002	9.5898440E-006
2	0	0	0	7.525399809892406E+000	-6.4750403E-001	-6.4754277E-001	-1.534904531309175E-002	9.9391636E-006
2	0	0	1	7.575499808626773E+000	-6.5251559E-001	-6.5256149E-001	-1.577649086933372E-002	1.0295130E-005
2	0	0	1	7.625599807361141E+000	-6.5752250E-001	-6.5754563E-001	-1.623121258377833E-002	1.0672763E-005
2	0	0	1	7.675599806098035E+000	-6.6252476E-001	-6.6255248E-001	-1.670366338132224E-002	1.1067053E-005
2	0	0	0	7.725699804832402E+000	-6.6753417E-001	-6.6757154E-001	-1.718658447920657E-002	1.1473275E-005
2	0	0	0	7.775799803566770E+000	-6.7254353E-001	-6.7257953E-001	-1.767083235099824E-002	1.1885040E-005
2	0	0	0	7.825799802303663E+000	-6.7754585E-001	-6.7757541E-001	-1.817135709327550E-002	1.2312465E-005
2	0	0	1	7.875899801038031E+000	-6.8255311E-001	-6.8258274E-001	-1.869057875578484E-002	1.2757866E-005
2	0	0	1	7.925999799772399E+000	-6.8756402E-001	-6.8759137E-001	-1.921732182968434E-002	1.3213665E-005
2	0	0	1	7.975999798509292E+000	-6.9256526E-001	-6.9258463E-001	-1.975290785403822E-002	1.3680560E-005
2	0	0	1	8.025999797246186E+000	-6.9756287E-001	-6.9759703E-001	-2.030926890589962E-002	1.4167686E-005
2	0	0	0	8.076199795978027E+000	-7.0258498E-001	-7.0262080E-001	-2.089081385903185E-002	1.4678320E-005
2	0	0	0	8.126199794714921E+000	-7.0758408E-001	-7.0761585E-001	-2.144740462029776E-002	1.5176523E-005
2	0	0	0	8.176199793451815E+000	-7.1258402E-001	-7.1262330E-001	-2.204001384739862E-002	1.5706228E-005
2	0	0	1	8.226399792183656E+000	-7.1760613E-001	-7.1764064E-001	-2.263909007971371E-002	1.6246731E-005
2	0	0	1	8.276399790920550E+000	-7.2260261E-001	-7.2262257E-001	-2.327530616884149E-002	1.6819262E-005
2	0	0	1	8.326399789657444E+000	-7.2760463E-001	-7.2762394E-001	-2.390816895951220E-002	1.7396156E-005
2	0	0	0	8.376499788391811E+000	-7.3261529E-001	-7.3263329E-001	-2.459093110729543E-002	1.8016135E-005
2	0	0	0	8.426599787126179E+000	-7.3762304E-001	-7.3764938E-001	-2.524636267971572E-002	1.8622964E-005
2	0	0	0	8.476599785863073E+000	-7.4262542E-001	-7.4263936E-001	-2.591648419485093E-002	1.9246601E-005
2	0	0	1	8.526699784597440E+000	-7.4763441E-001	-7.4765629E-001	-2.661421171573054E-002	1.9898283E-005
2	0	0	1	8.576799783331808E+000	-7.5264382E-001	-7.5265270E-001	-2.734383709341742E-002	2.0580414E-005
2	0	0	1	8.626799782068701E+000	-7.5764620E-001	-7.5767785E-001	-2.805418811893123E-002	2.1256037E-005
2	0	0	0	8.676899780803069E+000	-7.6265275E-001	-7.6266295E-001	-2.876486302424530E-002	2.1937894E-005
2	0	0	0	8.726999779537437E+000	-7.6766455E-001	-7.6771110E-001	-2.954075246245291E-002	2.2678763E-005
2	0	0	0	8.776999778274330E+000	-7.7266538E-001	-7.7270758E-001	-3.035063268263311E-002	2.3452163E-005
2	0	0	0	8.826999777011224E+000	-7.7766347E-001	-7.7770209E-001	-3.110571847034660E-002	2.4190982E-005
2	0	0	1	8.877199775743065E+000	-7.8268552E-001	-7.8272021E-001	-3.188404098454053E-002	2.4956284E-005
2	0	0	1	8.927199774479959E+000	-7.8768390E-001	-7.8773385E-001	-3.272646223274073E-002	2.5779742E-005
2	0	0	1	8.977199773216853E+000	-7.9268408E-001	-7.9271948E-001	-3.355404661519384E-002	2.6598946E-005
2	0	0	0	9.027399771948694E+000	-7.9770601E-001	-7.9775995E-001	-3.437716915506878E-002	2.7424729E-005
2	0	0	0	9.077399770685588E+000	-8.0270272E-001	-8.0272377E-001	-3.522700053113620E-002	2.8277551E-005
2	0	0	0	9.127399769422482E+000	-8.0770510E-001	-8.0776834E-001	-3.609246275139011E-002	2.9154349E-005
2	0	0	1	9.177499768156849E+000	-8.1271553E-001	-8.1276923E-001	-3.697738829048364E-002	3.0054083E-005
2	0	0	1	9.227599766891217E+000	-8.1772327E-001	-8.1777954E-001	-3.784644996314047E-002	3.0950054E-005
2	0	0	1	9.277599765628111E+000	-8.2272601E-001	-8.2278478E-001	-3.874548787632237E-002	3.1879197E-005
2	0	0	0	9.327699764362478E+000	-8.2773381E-001	-8.2780546E-001	-3.966734397389016E-002	3.2836844E-005
2	0	0	0	9.377799763096846E+000	-8.3274400E-001	-8.3281171E-001	-4.059503218574825E-002	3.3808017E-005
2	0	0	0	9.427799761833739E+000	-8.3774650E-001	-8.3779997E-001	-4.154201069304042E-002	3.4803896E-005
2	0	0	0	9.477799760570633E+000	-8.4274310E-001	-8.4278321E-001	-4.251528120107811E-002	3.5831166E-005
2	0	0	1	9.527999759302475E+000	-8.4776515E-001	-8.4781903E-001	-4.346313277910013E-002	3.6848873E-005
2	0	0	1	9.577999758039368E+000	-8.5276520E-001	-8.5282439E-001	-4.445733212699088E-002	3.7914298E-005
2	0	0	1	9.627999756776262E+000	-8.5776341E-001	-8.5782588E-001	-4.543948388106878E-002	3.8979164E-005
2	0	0	0	9.678199755508103E+000	-8.6278588E-001	-8.6283672E-001	-4.646130116894653E-002	4.0088518E-005
2	0	0	0	9.728199754244997E+000	-8.6778378E-001	-8.6784112E-001	-4.748763675515133E-002	4.1211722E-005
2	0	0	0	9.778199752981891E+000	-8.7278473E-001	-8.7283957E-001	-4.849806542319113E-002	4.2331030E-005
2	0	0	1	9.828299751716258E+000	-8.7779659E-001	-8.7784582E-001	-4.956331315859752E-002	4.3508946E-005
2	0	0	1	9.878399750450626E+000	-8.8280290E-001	-8.8284266E-001	-5.059610835061890E-002	4.4668403E-005
2	0	0	1	9.928399749187520E+000	-8.8780546E-001	-8.8784158E-001	-5.166646667825114E-002	4.5871639E-005
2	0	0	0	9.978499747921887E+000	-8.9281476E-001	-8.9285225E-001	-5.276662623158179E-002	4.7112801E-005
2	0	0	0	1.002859974665625E+001	-8.9782363E-001	-8.9786661E-001	-5.382119209561287E-002	4.8324251E-005
2	0	0	0	1.007859974539315E+001	-9.0282625E-001	-9.0288508E-001	-5.492869908047404E-002	4.9594302E-005
2	0	0	1	1.012869974412752E+001	-9.0783417E-001	-9.0787077E-001	-5.603566827716155E-002	5.0873146E-005
2	0	0	1	1.017879974286188E+001	-9.1284448E-001	-9.1290492E-001	-5.718618280336911E-002	5.2205549E-005
2	0	0	1	1.022879974159878E+001	-9.1784650E-001	-9.1789448E-001	-5.836611235946366E-002	5.3573931E-005
2	0	0	1	1.027879974033567E+001	-9.2284292E-001	-9.2288303E-001	-5.952036550854900E-002	5.4930337E-005
2	0	0	0	1.032899973906751E+001	-9.2786527E-001	-9.2789948E-001	-6.064920660693907E-002	5.6276367E-005
2	0	0	0	1.037899973780441E+001	-9.3286502E-001	-9.3291157E-001	-6.184697098617037E-002	5.7697755E-005
2	0	0	0	1.042899973654130E+001	-9.3786418E-001	-9.3791223E-001	-6.299899584431062E-002	5.9087528E-005
2	0	0	1	1.047919973527314E+001	-9.4288629E-001	-9.4294155E-001	-6.428256007680355E-002	6.0614697E-005
2	0	0	1	1.052919973401004E+001	-9.4788396E-001	-9.4793874E-001	-6.551111557867617E-002	6.2100524E-005
2	0	0	1	1.057919973274693E+001	-9.5288455E-001	-9.5291686E-001	-6.673385940486773E-002	6.3591819E-005
2	0	0	0	1.062929973148130E+001	-9.5789599E-001	-9.5790380E-001	-6.797111806491160E-002	6.5109794E-005
2	0	0	0	1.067939973021566E+001	-9.6290326E-001	-9.6294451E-001	-6.922690450301050E-002	6.6661669E-005
2	0	0	0	1.072939972895256E+001	-9.6790576E-001	-9.6794426E-001	-7.045212388695669E-002	6.8193731E-005
2	0	0	1	1.077949972768693E+001	-9.7291505E-001	-9.7295368E-001	-7.177899604310889E-002	6.9837639E-005
2	0	0	1	1.082959972642129E+001	-9.7792417E-001	-9.7796065E-001	-7.303152349018494E-002	7.1421957E-005
2	0	0	1	1.087959972515819E+001	-9.8292679E-001	-9.8296756E-001	-7.434118502652401E-002	7.3074974E-005
2	0	0	0	1.092969972389255E+001	-9.8793334E-001	-9.8798478E-001	-7.565146555527147E-002	7.4742493E-005
2	0	0	0	1.097979972262692E+001	-9.9294472E-001	-9.9296874E-001	-7.700353314915609E-002	7.6462100E-005
2	0	0	0	1.102749972142192E+001	-9.9771571E-001	-9.9772859E-001	-7.829904712012192E-002	7.8121200E-005
2	0	0	1	1.105039972084342E+001	-1.0000215E+000	-9.9998063E-001	-7.889778912067413E-002	7.8896264E-005