EC-Lab ASCII FILE
Nb header lines : 55                          

I-V Characterization

Run on channel : 1 (SN 6514)
User : 
CE vs. WE compliance from -10 V to 10 V
Electrode connection : standard
Ewe ctrl range : min = -1.10 V, max = 0.20 V
Safety Limits :
	Do not start on E overload
Acquisition started on : 06/15/2016 19:41:13
Saved on :
	File : B125-G54-UN-G-D1GB-C16 BW 10mVs_C01.mpr
	Directory : E:\EC-Lab measurements\B125-G54-UN-G-D1GB\
	Host : 10.0.2.15
Device : VSP (SN 0295)
Address : USB
EC-Lab for windows v11.01 (software)
Internet server v11.00 (firmware)
Command interpretor v11.00 (firmware)
Electrode material : 
Initial state : 
Electrolyte : 
Comments : 
Electrode surface area : 0.001 cm²
Characteristic mass : 0.001 g
Equivalent Weight : 0.000 g/eq.
Density : 0.000 g/cm3
tR (h:m:s)          0:00:0.0000         
dER/dt (mV/h)       0.0                 
dER (mV)            0                   
dtR (s)             0.0000              
dE/dt               10.000              
dE/dt unit          mV/s                
Ei (V)              -1.000              
vs.                 Ref                 
EL (V)              0.100               
vs.                 Ref                 
record              <I>                 
dI                  0.000               
unit dI             µA                  
tI (s)              0.1000              
step percent        100                 
N                   100                 
E range min (V)     -1.100              
E range max (V)     0.200               
I Range             Auto                
I Range min         Unset               
I Range max         Unset               
I Range init        Unset               
Bandwidth           5                   

mode	ox/red	error	control changes	time/s	control/V	Ewe/V	<I>/mA	P/W
2	1	0	0	1.449999963369919E-001	-9.9912035E-001	-9.9912119E-001	-2.054004154205323E+000	2.0521991E-003
2	1	0	1	3.977999899507267E-001	-9.9659473E-001	-9.9667513E-001	-2.090981415447622E+000	2.0840291E-003
2	1	0	0	8.983999773045070E-001	-9.9158841E-001	-9.9167252E-001	-2.084151861791788E+000	2.0667962E-003
2	1	0	1	1.398999964658287E+000	-9.8658270E-001	-9.8670006E-001	-2.011965935529737E+000	1.9852070E-003
2	1	0	1	1.899799952007015E+000	-9.8157448E-001	-9.8166549E-001	-1.914005997807992E+000	1.8789136E-003
2	1	0	0	2.400399939360796E+000	-9.7656864E-001	-9.7666228E-001	-1.812616535659679E+000	1.7703142E-003
2	1	0	1	2.900999926714576E+000	-9.7156250E-001	-9.7164190E-001	-1.718230187995935E+000	1.6695044E-003
2	1	0	0	3.401599914068356E+000	-9.6655643E-001	-9.6664995E-001	-1.634632838654995E+000	1.5801177E-003
2	1	0	1	3.902199901422136E+000	-9.6155053E-001	-9.6162921E-001	-1.561190282482301E+000	1.5012862E-003
2	1	0	0	4.402799888775917E+000	-9.5654434E-001	-9.5660734E-001	-1.497958436547313E+000	1.4329581E-003
2	1	0	1	4.903399876129697E+000	-9.5153862E-001	-9.5161098E-001	-1.439818246078717E+000	1.3701469E-003
2	1	0	0	5.403999863483477E+000	-9.4653225E-001	-9.4663054E-001	-1.387008956197654E+000	1.3129851E-003
2	1	0	1	5.904699850834731E+000	-9.4152558E-001	-9.4160968E-001	-1.339654628045707E+000	1.2614317E-003
2	1	0	1	6.405399838185986E+000	-9.3651843E-001	-9.3661332E-001	-1.294958054882450E+000	1.2128750E-003
2	1	0	0	6.905999825539766E+000	-9.3151265E-001	-9.3161309E-001	-1.252746907469671E+000	1.1670754E-003
2	1	0	1	7.406599812893546E+000	-9.2650646E-001	-9.2660660E-001	-1.211633780557769E+000	1.1227079E-003
2	1	0	0	7.907199800247326E+000	-9.2150074E-001	-9.2158455E-001	-1.171941290481085E+000	1.0800430E-003
2	1	0	1	8.407799787601107E+000	-9.1649449E-001	-9.1657448E-001	-1.133533601633400E+000	1.0389680E-003
2	1	0	0	8.908399774954887E+000	-9.1148865E-001	-9.1159147E-001	-1.096258954262808E+000	9.9934032E-004
2	1	0	1	9.408999762308667E+000	-9.0648234E-001	-9.0658659E-001	-1.059864515872023E+000	9.6085895E-004
2	1	0	0	9.909599749662448E+000	-9.0147662E-001	-9.0156758E-001	-1.024574113416833E+000	9.2372281E-004
2	1	0	1	1.041029973701370E+001	-8.9646935E-001	-8.9656520E-001	-9.903280769570972E-001	8.8789366E-004
2	1	0	1	1.091099972436496E+001	-8.9146256E-001	-8.9153731E-001	-9.565831631298050E-001	8.5282960E-004
2	1	0	0	1.141159971171874E+001	-8.8645637E-001	-8.8653946E-001	-9.226137609436851E-001	8.1793353E-004
2	1	0	1	1.191219969907252E+001	-8.8145047E-001	-8.8152319E-001	-8.898766387039529E-001	7.8444689E-004
2	1	0	0	1.241279968642630E+001	-8.7644446E-001	-8.7653244E-001	-8.573561531341838E-001	7.5150048E-004
2	1	0	1	1.291339967378008E+001	-8.7143832E-001	-8.7154400E-001	-8.249687414259146E-001	7.1899657E-004
2	1	0	0	1.341399966113386E+001	-8.6643255E-001	-8.6655390E-001	-7.931155709289763E-001	6.8727741E-004
2	1	0	1	1.391459964848764E+001	-8.6142629E-001	-8.6153281E-001	-7.618327479004101E-001	6.5634388E-004
2	1	0	0	1.441519963584142E+001	-8.5642052E-001	-8.5651791E-001	-7.304719558918897E-001	6.2566233E-004
2	1	0	0	1.491599962319015E+001	-8.5141236E-001	-8.5151207E-001	-6.996715324463008E-001	5.9577875E-004
2	1	0	1	1.541659961054393E+001	-8.4640652E-001	-8.4651029E-001	-6.694885527673158E-001	5.6672894E-004
2	1	0	0	1.591719959789771E+001	-8.4140033E-001	-8.4147888E-001	-6.394060799436998E-001	5.3804670E-004
2	1	0	1	1.641779958525149E+001	-8.3639449E-001	-8.3648872E-001	-6.097837764497971E-001	5.1007723E-004
2	1	0	0	1.691839957260527E+001	-8.3138829E-001	-8.3150053E-001	-5.807836083186584E-001	4.8292187E-004
2	1	0	1	1.741899955995905E+001	-8.2638246E-001	-8.2649380E-001	-5.518803457445731E-001	4.5612568E-004
2	1	0	0	1.791959954731283E+001	-8.2137632E-001	-8.2147855E-001	-5.233660854407933E-001	4.2993401E-004
2	1	0	1	1.842019953466661E+001	-8.1637043E-001	-8.1647116E-001	-4.948587247389247E-001	4.0403788E-004
2	1	0	0	1.893839952157578E+001	-8.1118834E-001	-8.1125194E-001	-4.667911834218718E-001	3.7868525E-004
2	1	0	1	1.945659950848494E+001	-8.0600655E-001	-8.0606425E-001	-4.380622121073765E-001	3.5310630E-004
2	1	0	0	1.995719949583872E+001	-8.0100030E-001	-8.0104995E-001	-4.106788605657041E-001	3.2897427E-004
2	1	0	1	2.045779948319250E+001	-7.9599440E-001	-7.9606175E-001	-3.841549549880883E-001	3.0581106E-004
2	1	0	0	2.095839947054628E+001	-7.9098821E-001	-7.9102921E-001	-3.582215435283080E-001	2.8336371E-004
2	1	0	1	2.145899945790006E+001	-7.8598225E-001	-7.8602976E-001	-3.319307440110704E-001	2.6090743E-004
2	1	0	0	2.195959944525384E+001	-7.8097630E-001	-7.8102249E-001	-3.058764828682383E-001	2.3889641E-004
2	1	0	1	2.246029943260510E+001	-7.7596909E-001	-7.7600706E-001	-2.807474454948464E-001	2.1786201E-004
2	1	0	1	2.296099941995635E+001	-7.7096236E-001	-7.7099788E-001	-2.563341791719322E-001	1.9763311E-004
2	1	0	0	2.346159940731013E+001	-7.6595622E-001	-7.6600063E-001	-2.307786816098174E-001	1.7677661E-004
2	1	0	1	2.396219939466391E+001	-7.6095039E-001	-7.6098502E-001	-2.062509658841108E-001	1.5695390E-004
2	1	0	0	2.446279938201769E+001	-7.5594419E-001	-7.5596929E-001	-1.824537183175410E-001	1.3792941E-004
2	1	0	1	2.496339936937147E+001	-7.5093830E-001	-7.5098145E-001	-1.595924060028081E-001	1.1985093E-004
2	1	0	0	2.546399935672525E+001	-7.4593222E-001	-7.4595559E-001	-1.363375795977791E-001	1.0170178E-004
2	1	0	1	2.596459934407903E+001	-7.4092627E-001	-7.4094474E-001	-1.134671465584116E-001	8.4072883E-005
2	1	0	0	2.646519933143281E+001	-7.3592019E-001	-7.3594654E-001	-8.997927933776784E-002	6.6219938E-005
2	1	0	1	2.696589931878407E+001	-7.3091340E-001	-7.3094833E-001	-6.797466859809664E-002	4.9685972E-005
2	1	0	1	2.748409930569323E+001	-7.2573125E-001	-7.2575277E-001	-4.607851763342324E-002	3.3441611E-005
2	1	0	1	2.800219929260493E+001	-7.2055030E-001	-7.2055966E-001	-2.296784083899994E-002	1.6549700E-005
2	1	0	0	2.850279927995871E+001	-7.1554410E-001	-7.1557307E-001	-1.470358948067726E-003	1.0521493E-006
2	1	0	1	2.900339926731249E+001	-7.1053833E-001	-7.1055627E-001	1.795797360479962E-002	1.2760151E-005
2	1	0	0	2.950399925466627E+001	-7.0553213E-001	-7.0554626E-001	3.944222812546161E-002	2.7828317E-005
2	1	0	1	3.000459924202005E+001	-7.0052624E-001	-7.0053697E-001	6.017707702158034E-002	4.2156265E-005
2	1	0	0	3.050529922937130E+001	-6.9551909E-001	-6.9551808E-001	7.941061688272844E-002	5.5231518E-005
2	1	0	0	3.102349921628047E+001	-6.9033712E-001	-6.9033694E-001	9.929451554831026E-002	6.8546673E-005
2	1	0	0	3.154159920319216E+001	-6.8515605E-001	-6.8518054E-001	1.197274275447089E-001	8.2034901E-005
2	1	0	1	3.204219919054594E+001	-6.8014997E-001	-6.8017483E-001	1.373592987235974E-001	9.3428338E-005
2	1	0	0	3.254279917789972E+001	-6.7514408E-001	-6.7516881E-001	1.570181127155852E-001	1.0601373E-004
2	1	0	1	3.304339916525350E+001	-6.7013788E-001	-6.7018086E-001	1.742633738315961E-001	1.1678797E-004
2	1	0	0	3.354399915260728E+001	-6.6513211E-001	-6.6516262E-001	1.915928538883325E-001	1.2744041E-004
2	1	0	0	3.404479913995601E+001	-6.6012406E-001	-6.6015261E-001	2.092673517822212E-001	1.3814839E-004
2	1	0	1	3.454539912730979E+001	-6.5511817E-001	-6.5516257E-001	2.256837361603246E-001	1.4785954E-004
2	1	0	0	3.504599911466357E+001	-6.5011209E-001	-6.5013993E-001	2.419879653853538E-001	1.5732604E-004
2	1	0	1	3.554659910201735E+001	-6.4510620E-001	-6.4513969E-001	2.603992783162086E-001	1.6799392E-004
2	1	0	0	3.604719908937113E+001	-6.4010006E-001	-6.4014894E-001	2.756556175410196E-001	1.7646066E-004
2	1	0	1	3.654779907672491E+001	-6.3509405E-001	-6.3516152E-001	2.916969705117478E-001	1.8527469E-004
2	1	0	0	3.704839906407869E+001	-6.3008797E-001	-6.3015115E-001	3.086962553759536E-001	1.9452530E-004
2	1	0	1	3.754899905143247E+001	-6.2508202E-001	-6.2515950E-001	3.239788062077249E-001	2.0253843E-004
2	1	0	0	3.804969903878373E+001	-6.2007493E-001	-6.2013251E-001	3.368971047731634E-001	2.0892084E-004
2	1	0	0	3.855039902613498E+001	-6.1506802E-001	-6.1513245E-001	3.539344765195134E-001	2.1771659E-004
2	1	0	1	3.905099901348876E+001	-6.1006194E-001	-6.1011642E-001	3.683219901551693E-001	2.2471929E-004
2	1	0	0	3.955159900084254E+001	-6.0505587E-001	-6.0511827E-001	3.817403861705606E-001	2.3099808E-004
2	1	0	1	4.005219898819632E+001	-6.0004979E-001	-6.0011482E-001	3.960958716766855E-001	2.3770300E-004
2	1	0	0	4.055279897555010E+001	-5.9504384E-001	-5.9509647E-001	4.091346354149588E-001	2.4347458E-004
2	1	0	1	4.105339896290388E+001	-5.9003782E-001	-5.9009558E-001	4.226308308682576E-001	2.4939259E-004
2	1	0	0	4.155399895025766E+001	-5.8503175E-001	-5.8508384E-001	4.373598166081218E-001	2.5589217E-004
2	1	0	1	4.205459893761144E+001	-5.8002585E-001	-5.8007830E-001	4.495508416693865E-001	2.6077469E-004
2	1	0	0	4.255529892496270E+001	-5.7501888E-001	-5.7506877E-001	4.601556057120613E-001	2.6462111E-004
2	1	0	0	4.305599891231395E+001	-5.7001191E-001	-5.7007253E-001	4.738716807607792E-001	2.7014123E-004
2	1	0	1	4.355659889966773E+001	-5.6500578E-001	-5.6506312E-001	4.857992871576871E-001	2.7450727E-004
2	1	0	0	4.405719888702151E+001	-5.5999982E-001	-5.6006199E-001	4.972873963838076E-001	2.7851178E-004
2	1	0	1	4.455779887437529E+001	-5.5499381E-001	-5.5506986E-001	5.111626863329111E-001	2.8373100E-004
2	1	0	0	4.505839886172907E+001	-5.4998779E-001	-5.5004716E-001	5.204601089505818E-001	2.8627762E-004
2	1	0	1	4.555899884908285E+001	-5.4498172E-001	-5.4502976E-001	5.301034873290860E-001	2.8892217E-004
2	1	0	0	4.605959883643663E+001	-5.3997576E-001	-5.4001933E-001	5.417708017363578E-001	2.9256672E-004
2	1	0	1	4.656019882379042E+001	-5.3496975E-001	-5.3501821E-001	5.522236537598282E-001	2.9544972E-004
2	1	0	0	4.706089881114167E+001	-5.2996272E-001	-5.3000903E-001	5.628240768862480E-001	2.9830183E-004
2	1	0	0	4.756159879849292E+001	-5.2495575E-001	-5.2501231E-001	5.721226052352044E-001	3.0037141E-004
2	1	0	1	4.806219878584670E+001	-5.1994967E-001	-5.2001840E-001	5.822485271616120E-001	3.0277995E-004
2	1	0	0	4.856279877320048E+001	-5.1494366E-001	-5.1501006E-001	5.917208208714432E-001	3.0474216E-004
2	1	0	1	4.906339876055426E+001	-5.0993764E-001	-5.0999618E-001	6.000529157483356E-001	3.0602468E-004
2	1	0	0	4.956399874790804E+001	-5.0493157E-001	-5.0498939E-001	6.110749391636103E-001	3.0858637E-004
2	1	0	1	5.006459873526182E+001	-4.9992555E-001	-4.9997669E-001	6.206621668704022E-001	3.1031662E-004
2	1	0	0	5.056519872261561E+001	-4.9491951E-001	-4.9497396E-001	6.277359641127536E-001	3.1071296E-004
2	1	0	1	5.106579870996939E+001	-4.8991346E-001	-4.8996595E-001	6.371598405759009E-001	3.1218663E-004
2	1	0	1	5.156659869731811E+001	-4.8490554E-001	-4.8494446E-001	6.463185592341278E-001	3.1342861E-004
2	1	0	0	5.206719868467189E+001	-4.7989962E-001	-4.7993267E-001	6.546502799443941E-001	3.1418804E-004
2	1	0	1	5.256779867202567E+001	-4.7489360E-001	-4.7491884E-001	6.612973936548752E-001	3.1406261E-004
2	1	0	0	5.306839865937945E+001	-4.6988761E-001	-4.6991646E-001	6.698184882690050E-001	3.1475874E-004
2	1	0	1	5.356899864673323E+001	-4.6488157E-001	-4.6491697E-001	6.778530577671988E-001	3.1514539E-004
2	1	0	0	5.406959863408701E+001	-4.5987558E-001	-4.5990542E-001	6.846723878009229E-001	3.1488453E-004
2	1	0	1	5.457019862144080E+001	-4.5486960E-001	-4.5491034E-001	6.931810381843914E-001	3.1533523E-004
2	1	0	0	5.507079860879458E+001	-4.4986364E-001	-4.4989482E-001	6.989679273962901E-001	3.1446206E-004
2	1	0	1	5.557149859614583E+001	-4.4485655E-001	-4.4488698E-001	7.078159399015496E-001	3.1489809E-004
2	1	0	1	5.607219858349708E+001	-4.3984959E-001	-4.3988138E-001	7.143444477615857E-001	3.1422681E-004
2	1	0	0	5.657279857085086E+001	-4.3484360E-001	-4.3488955E-001	7.199861072523728E-001	3.1311443E-004
2	1	0	1	5.707339855820464E+001	-4.2983758E-001	-4.2986044E-001	7.251117310756348E-001	3.1169684E-004
2	1	0	0	5.757399854555842E+001	-4.2483151E-001	-4.2486015E-001	7.331662182830320E-001	3.1149312E-004
2	1	0	1	5.807459853291221E+001	-4.1982549E-001	-4.1985208E-001	7.397111720116216E-001	3.1056927E-004
2	1	0	0	5.857519852026599E+001	-4.1481942E-001	-4.1485557E-001	7.445096598488998E-001	3.0886399E-004
2	1	0	1	5.907579850761977E+001	-4.0981340E-001	-4.0984398E-001	7.512697282749539E-001	3.0790336E-004
2	1	0	0	5.957639849497355E+001	-4.0480742E-001	-4.0484399E-001	7.584096133143645E-001	3.0703758E-004
2	1	0	1	6.007709848232480E+001	-3.9980039E-001	-3.9984906E-001	7.630258158444949E-001	3.0509516E-004
2	1	0	1	6.057779846967605E+001	-3.9479345E-001	-3.9483538E-001	7.686761500522818E-001	3.0350054E-004
2	1	0	0	6.107839845702983E+001	-3.8978744E-001	-3.8981527E-001	7.765767145271667E-001	3.0272146E-004
2	1	0	1	6.157899844438361E+001	-3.8478145E-001	-3.8482079E-001	7.791985347301873E-001	2.9985179E-004
2	1	0	0	6.207959843173740E+001	-3.7977549E-001	-3.7980825E-001	7.850530777755522E-001	2.9816965E-004
2	1	0	1	6.258019841909118E+001	-3.7476948E-001	-3.7479749E-001	7.907045278254206E-001	2.9635406E-004
2	1	0	0	6.308079840644496E+001	-3.6976346E-001	-3.6979946E-001	7.939075192813010E-001	2.9358658E-004
2	1	0	1	6.358139839379874E+001	-3.6475745E-001	-3.6479202E-001	7.986752411707458E-001	2.9135036E-004
2	1	0	0	6.408199838115252E+001	-3.5975143E-001	-3.5979235E-001	8.060664735193601E-001	2.9001656E-004
2	1	0	0	6.458279836850124E+001	-3.5474345E-001	-3.5476565E-001	8.080854739544705E-001	2.8668097E-004
2	1	0	1	6.508339835585502E+001	-3.4973747E-001	-3.4977052E-001	8.137224037161204E-001	2.8461611E-004
2	1	0	0	6.558399834320880E+001	-3.4473145E-001	-3.4475103E-001	8.189420497359379E-001	2.8233111E-004
2	1	0	1	6.608459833056259E+001	-3.3972535E-001	-3.3974856E-001	8.217748358267416E-001	2.7919683E-004
2	1	0	0	6.658519831791637E+001	-3.3471936E-001	-3.3473316E-001	8.255703022468719E-001	2.7634576E-004
2	1	0	1	6.708579830527015E+001	-3.2971334E-001	-3.2971641E-001	8.291726814875240E-001	2.7339184E-004
2	1	0	0	6.758639829262393E+001	-3.2470733E-001	-3.2474402E-001	8.331223509554686E-001	2.7055151E-004
2	1	0	1	6.808699827997771E+001	-3.1970128E-001	-3.1974757E-001	8.374606559331568E-001	2.6777602E-004
2	1	0	0	6.858759826733149E+001	-3.1469524E-001	-3.1473169E-001	8.415397864425005E-001	2.6485923E-004
2	1	0	0	6.908839825468021E+001	-3.0968726E-001	-3.0973363E-001	8.442905609491178E-001	2.6150519E-004
2	1	0	1	6.958899824203399E+001	-3.0468124E-001	-3.0472094E-001	8.495745676348265E-001	2.5888317E-004
2	1	0	0	7.008959822938778E+001	-2.9967532E-001	-2.9971850E-001	8.539481064127310E-001	2.5594403E-004
2	1	0	1	7.059019821674156E+001	-2.9466924E-001	-2.9468489E-001	8.543607969599183E-001	2.5176723E-004
2	1	0	0	7.109079820409534E+001	-2.8966326E-001	-2.8968576E-001	8.595881605849902E-001	2.4901045E-004
2	1	0	1	7.159139819144912E+001	-2.8465727E-001	-2.8469378E-001	8.614830925144377E-001	2.4525888E-004
2	1	0	0	7.209199817880290E+001	-2.7965122E-001	-2.7967989E-001	8.616177974100068E-001	2.4097717E-004
2	1	0	1	7.259259816615668E+001	-2.7464518E-001	-2.7467597E-001	8.661269371900424E-001	2.3790426E-004
2	1	0	0	7.309329815350793E+001	-2.6963818E-001	-2.6966417E-001	8.702399319912644E-001	2.3467252E-004
2	1	0	0	7.359399814085918E+001	-2.6463118E-001	-2.6465523E-001	8.730030964755358E-001	2.3104483E-004
2	1	0	1	7.409459812821297E+001	-2.5962514E-001	-2.5965640E-001	8.781068343071491E-001	2.2800606E-004
2	1	0	0	7.459519811556675E+001	-2.5461918E-001	-2.5464484E-001	8.805707667863409E-001	2.2423280E-004
2	1	0	1	7.509579810292053E+001	-2.4961312E-001	-2.4964730E-001	8.808475682564416E-001	2.1990122E-004
2	1	0	0	7.559639809027431E+001	-2.4460712E-001	-2.4466936E-001	8.853062489414523E-001	2.1660731E-004
2	1	0	1	7.609699807762809E+001	-2.3960114E-001	-2.3965451E-001	8.866321042597818E-001	2.1248538E-004
2	1	0	0	7.659759806498187E+001	-2.3459511E-001	-2.3465033E-001	8.900322896333336E-001	2.0884637E-004
2	1	0	1	7.709819805233565E+001	-2.2958909E-001	-2.2965015E-001	8.902335747974074E-001	2.0444227E-004
2	1	0	0	7.759889803968690E+001	-2.2458214E-001	-2.2464864E-001	8.910439974973006E-001	2.0017182E-004
2	1	0	0	7.809959802703816E+001	-2.1957511E-001	-2.1962698E-001	8.957753308777097E-001	1.9673642E-004
2	1	0	1	7.860019801439194E+001	-2.1456912E-001	-2.1460752E-001	8.986207752289737E-001	1.9285078E-004
2	1	0	0	7.910079800174572E+001	-2.0956311E-001	-2.0961669E-001	9.008703746530502E-001	1.8883747E-004
2	1	0	1	7.960139798909950E+001	-2.0455706E-001	-2.0461443E-001	9.039693843846024E-001	1.8496517E-004
2	1	0	0	8.010199797645328E+001	-1.9955106E-001	-1.9960301E-001	9.041161155419495E-001	1.8046430E-004
2	1	0	1	8.060259796380706E+001	-1.9454502E-001	-1.9458495E-001	9.075315911907200E-001	1.7659199E-004
2	1	0	0	8.110319795116084E+001	-1.8953902E-001	-1.8958060E-001	9.113156120841452E-001	1.7276776E-004
2	1	0	1	8.160379793851462E+001	-1.8453301E-001	-1.8458807E-001	9.134830182494520E-001	1.6861808E-004
2	1	0	1	8.210459792586335E+001	-1.7952508E-001	-1.7956758E-001	9.136020877102560E-001	1.6405332E-004
2	1	0	0	8.260519791321713E+001	-1.7451905E-001	-1.7456402E-001	9.132218060828556E-001	1.5941566E-004
2	1	0	1	8.310579790057091E+001	-1.6951305E-001	-1.6955000E-001	9.135913881107034E-001	1.5489942E-004
2	1	0	0	8.360639788792469E+001	-1.6450705E-001	-1.6454001E-001	9.173003458563227E-001	1.5093261E-004
2	1	0	1	8.410699787527847E+001	-1.5950100E-001	-1.5952416E-001	9.210910532230852E-001	1.4693628E-004
2	1	0	0	8.460759786263225E+001	-1.5449497E-001	-1.5451947E-001	9.203137756324263E-001	1.4220639E-004
2	1	0	1	8.510819784998603E+001	-1.4948894E-001	-1.4953135E-001	9.206661106909815E-001	1.3766845E-004
2	1	0	0	8.560879783733981E+001	-1.4448291E-001	-1.4451985E-001	9.246175222333086E-001	1.3362558E-004
2	1	0	1	8.610949782469106E+001	-1.3947591E-001	-1.3947934E-001	9.247556566776165E-001	1.2898431E-004
2	1	0	1	8.661019781204232E+001	-1.3446896E-001	-1.3449061E-001	9.281784906262065E-001	1.2483129E-004
2	1	0	0	8.711079779939610E+001	-1.2946291E-001	-1.2947091E-001	9.294380616966649E-001	1.2033519E-004
2	1	0	1	8.761139778674988E+001	-1.2445689E-001	-1.2447771E-001	9.287637201590684E-001	1.1561038E-004
2	1	0	0	8.811199777410366E+001	-1.1945086E-001	-1.1946001E-001	9.304609089620453E-001	1.1115287E-004
2	1	0	1	8.861259776145744E+001	-1.1444487E-001	-1.1445277E-001	9.335987040290097E-001	1.0685296E-004
2	1	0	0	8.911319774881122E+001	-1.0943886E-001	-1.0945854E-001	9.334155000197910E-001	1.0217030E-004
2	1	0	1	8.961379773616500E+001	-1.0443286E-001	-1.0445967E-001	9.343998282902710E-001	9.7607095E-005
2	1	0	0	9.011439772351878E+001	-9.9426828E-002	-9.9437602E-002	9.325279048798127E-001	9.2728340E-005
2	1	0	1	9.061509771087003E+001	-9.4419837E-002	-9.4436310E-002	9.362989101016730E-001	8.8420617E-005
2	1	0	1	9.111579769822129E+001	-8.9412838E-002	-8.9439638E-002	9.365796144647209E-001	8.3767343E-005
2	1	0	0	9.161639768557507E+001	-8.4406838E-002	-8.4422007E-002	9.375944974851418E-001	7.9153608E-005
2	1	0	1	9.211699767292885E+001	-7.9400845E-002	-7.9405867E-002	9.387470836142189E-001	7.4542026E-005
2	1	0	0	9.261759766028263E+001	-7.4394770E-002	-7.4416123E-002	9.374349880017618E-001	6.9760281E-005
2	1	0	1	9.311819764763641E+001	-6.9388784E-002	-6.9414526E-002	9.395819998462738E-001	6.5220636E-005
2	1	0	0	9.361879763499019E+001	-6.4382784E-002	-6.4411692E-002	9.403391487576334E-001	6.0568836E-005
2	1	0	1	9.411939762234397E+001	-5.9376758E-002	-5.9402231E-002	9.411818355349368E-001	5.5908302E-005
2	1	0	0	9.461999760969775E+001	-5.4370731E-002	-5.4387350E-002	9.457208825945376E-001	5.1435250E-005
2	1	0	1	9.512069759704900E+001	-4.9363758E-002	-4.9392581E-002	9.461470697157761E-001	4.6732646E-005
2	1	0	1	9.562139758440026E+001	-4.4356741E-002	-4.4384487E-002	9.444512537203753E-001	4.1918986E-005
2	1	0	0	9.612199757175404E+001	-3.9350741E-002	-3.9367478E-002	9.453148105197933E-001	3.7214661E-005
2	1	0	1	9.662259755910782E+001	-3.4344736E-002	-3.4356765E-002	9.471489906111898E-001	3.2540975E-005
2	1	0	0	9.712319754646160E+001	-2.9338736E-002	-2.9357877E-002	9.482437436012052E-001	2.7838423E-005
2	1	0	1	9.762379753381538E+001	-2.4332685E-002	-2.4348555E-002	9.499136757063709E-001	2.3129025E-005
2	1	0	0	9.812439752116916E+001	-1.9326689E-002	-1.9345488E-002	9.485930512921765E-001	1.8350996E-005
2	1	0	1	9.862499750852294E+001	-1.4320688E-002	-1.4346785E-002	9.467384889141282E-001	1.3582653E-005
2	1	0	0	9.912559749587672E+001	-9.3146339E-003	-9.3555925E-003	9.487471098832891E-001	8.8760917E-006
2	1	0	0	9.962639748322545E+001	-4.3066959E-003	-4.3418789E-003	9.515820038257354E-001	4.1316539E-006
2	1	0	1	1.001269974705792E+002	6.9930014E-004	6.5792934E-004	9.513118837507417E-001	6.2589601E-007
2	1	0	0	1.006275974579330E+002	5.7053175E-003	5.6626876E-003	9.505886158531833E-001	5.3828862E-006
2	1	0	1	1.011281974452868E+002	1.0711312E-002	1.0669813E-002	9.521907150926516E-001	1.0159697E-005
2	1	0	0	1.016287974326406E+002	1.5717307E-002	1.5689770E-002	9.532193462501812E-001	1.4955792E-005
2	1	0	1	1.021293974199943E+002	2.0723321E-002	2.0697167E-002	9.501652002690753E-001	1.9665727E-005
2	1	0	0	1.026299974073481E+002	2.5729295E-002	2.5692562E-002	9.537596460873665E-001	2.4504528E-005
2	1	0	1	1.031305973947019E+002	3.0735279E-002	3.0720141E-002	9.547824452373614E-001	2.9331051E-005
2	1	0	0	1.036312973820532E+002	3.5742261E-002	3.5720468E-002	9.565686604921519E-001	3.4169079E-005
2	1	0	0	1.041319973694044E+002	4.0749222E-002	4.0725429E-002	9.593631391840258E-001	3.9070474E-005
2	1	0	1	1.046325973567582E+002	4.5755234E-002	4.5723598E-002	9.616264868958506E-001	4.3969023E-005
2	1	0	0	1.051331973441120E+002	5.0761234E-002	5.0733496E-002	9.612358094435187E-001	4.8766851E-005
2	1	0	1	1.056337973314658E+002	5.5767208E-002	5.5738732E-002	9.582336579010799E-001	5.3410728E-005
2	1	0	0	1.061343973188195E+002	6.0773198E-002	6.0738269E-002	9.590801007311449E-001	5.8252866E-005
2	1	0	1	1.066349973061733E+002	6.5779209E-002	6.5761924E-002	9.611631471739397E-001	6.3207939E-005
2	1	0	0	1.071355972935271E+002	7.0785195E-002	7.0755035E-002	9.590348637169612E-001	6.7856548E-005
2	1	0	1	1.076361972808809E+002	7.5791195E-002	7.5784773E-002	9.604103879705264E-001	7.2784482E-005
2	1	0	0	1.081368972682321E+002	8.0798164E-002	8.0786169E-002	9.616500448657828E-001	7.7688026E-005
2	1	0	0	1.086375972555834E+002	8.5805163E-002	8.5785769E-002	9.632468315009932E-001	8.2632869E-005
2	1	0	1	1.091381972429372E+002	9.0811148E-002	9.0783745E-002	9.613699985417670E-001	8.7276771E-005
2	1	0	0	1.096387972302909E+002	9.5817119E-002	9.5791034E-002	9.595819849938447E-001	9.1919348E-005
2	1	0	1	1.099716972218812E+002	9.9146269E-002	9.9148870E-002	9.627453692557649E-001	9.5455114E-005
2	1	0	0	1.100545972197870E+002	9.9997252E-002	9.9955998E-002	9.753130376338923E-001	9.7488388E-005