EC-Lab ASCII FILE
Nb header lines : 55                          

I-V Characterization

Run on channel : 1 (SN 6514)
User : 
CE vs. WE compliance from -10 V to 10 V
Electrode connection : standard
Ewe ctrl range : min = -1.10 V, max = 0.20 V
Safety Limits :
	Do not start on E overload
Acquisition started on : 06/15/2016 19:48:50
Saved on :
	File : B125-G54-UN-G-D1GB-C16 FW 100mVs dark_C01.mpr
	Directory : E:\EC-Lab measurements\B125-G54-UN-G-D1GB\
	Host : 10.0.2.15
Device : VSP (SN 0295)
Address : USB
EC-Lab for windows v11.01 (software)
Internet server v11.00 (firmware)
Command interpretor v11.00 (firmware)
Electrode material : 
Initial state : 
Electrolyte : 
Comments : 
Electrode surface area : 0.001 cm²
Characteristic mass : 0.001 g
Equivalent Weight : 0.000 g/eq.
Density : 0.000 g/cm3
tR (h:m:s)          0:00:0.0000         
dER/dt (mV/h)       0.0                 
dER (mV)            0                   
dtR (s)             0.0000              
dE/dt               100.000             
dE/dt unit          mV/s                
Ei (V)              0.100               
vs.                 Ref                 
EL (V)              -1.000              
vs.                 Ref                 
record              <I>                 
dI                  0.000               
unit dI             µA                  
tI (s)              0.1000              
step percent        100                 
N                   100                 
E range min (V)     -1.100              
E range max (V)     0.200               
I Range             Auto                
I Range min         Unset               
I Range max         Unset               
I Range init        Unset               
Bandwidth           5                   

mode	ox/red	error	control changes	time/s	control/V	Ewe/V	<I>/mA	P/W
2	0	0	1	8.039999796892516E-002	9.6993521E-002	9.6957594E-002	2.190379775129259E-003	2.1237395E-007
2	0	0	0	1.056999973297934E-001	9.4465211E-002	9.4442651E-002	2.017572221680385E-003	1.9054487E-007
2	0	0	0	1.710999956776504E-001	8.7929122E-002	8.7908238E-002	1.679949708223829E-003	1.4768142E-007
2	0	0	1	2.363999940280337E-001	8.1398934E-002	8.1370927E-002	1.420701673889524E-003	1.1560381E-007
2	0	0	1	2.863999927649274E-001	7.6396704E-002	7.6362506E-002	1.248211804085124E-003	9.5316580E-008
2	0	0	0	3.364999914992950E-001	7.1386509E-002	7.1354054E-002	1.094444655765996E-003	7.8093066E-008
2	0	0	0	3.865999902336625E-001	6.6378236E-002	6.6347532E-002	9.553937941013321E-004	6.3388022E-008
2	0	0	0	4.365999889705563E-001	6.1375830E-002	6.1339758E-002	8.258002683559466E-004	5.0654389E-008
2	0	0	1	4.866999877049238E-001	5.6367833E-002	5.6324217E-002	7.115245511964061E-004	4.0076063E-008
2	0	0	1	5.367999864392914E-001	5.1357362E-002	5.1311746E-002	6.024315820132731E-004	3.0911817E-008
2	0	0	1	5.867999851761851E-001	4.6355389E-002	4.6323929E-002	5.026535998462083E-004	2.3284890E-008
2	0	0	1	6.367999839130789E-001	4.1359074E-002	4.1313879E-002	4.083096453641709E-004	1.6868855E-008
2	0	0	0	6.869999826449202E-001	3.6336713E-002	3.6298409E-002	3.209196240315029E-004	1.1648872E-008
2	0	0	0	7.369999813818140E-001	3.1336755E-002	3.1293061E-002	2.393148375188785E-004	7.4888939E-009
2	0	0	0	7.869999801187078E-001	2.6338194E-002	2.6296867E-002	1.602380121775945E-004	4.2137578E-009
2	0	0	1	8.371999788505491E-001	2.1315835E-002	2.1280887E-002	8.608334370149634E-005	1.8319298E-009
2	0	0	1	8.871999775874428E-001	1.6318094E-002	1.6275350E-002	1.527395978543293E-005	2.4858904E-010
2	0	0	1	9.371999763243366E-001	1.1317321E-002	1.1259257E-002	-5.276325873207894E-005	5.9407507E-010
2	0	0	0	9.872999750587041E-001	6.3056569E-003	6.2421262E-003	-1.176069390368441E-004	7.3411738E-010
2	0	0	0	1.037399973793072E+000	1.2990338E-003	1.2358881E-003	-1.809629102345134E-004	2.2364990E-010
2	0	0	0	1.087399972529965E+000	-3.7033611E-003	-3.7745961E-003	-2.418692812302600E-004	9.1295888E-010
2	0	0	1	1.137499971264333E+000	-8.7130331E-003	-8.7857693E-003	-3.022221865857056E-004	2.6552545E-009
2	0	0	1	1.187599969998701E+000	-1.3721895E-002	-1.3770055E-002	-3.611213102827039E-004	4.9726605E-009
2	0	0	1	1.237599968735594E+000	-1.8724302E-002	-1.8762482E-002	-4.186269208627646E-004	7.8544806E-009
2	0	0	0	1.287699967469962E+000	-2.3731761E-002	-2.3772480E-002	-4.750255736386266E-004	1.1292536E-008
2	0	0	0	1.337799966204329E+000	-2.8742639E-002	-2.8780855E-002	-5.324103341803740E-004	1.5323225E-008
2	0	0	0	1.387799964941223E+000	-3.3744227E-002	-3.3772599E-002	-5.900332484984381E-004	1.9926956E-008
2	0	0	0	1.437799963678117E+000	-3.8741175E-002	-3.8787898E-002	-6.479133887821384E-004	2.5131198E-008
2	0	0	1	1.487999962409958E+000	-4.3763574E-002	-4.3804094E-002	-7.067613455140342E-004	3.0959040E-008
2	0	0	1	1.537999961146852E+000	-4.8762985E-002	-4.8794914E-002	-7.650379844637324E-004	3.7329961E-008
2	0	0	1	1.587999959883746E+000	-5.3762134E-002	-5.3798717E-002	-8.256642420964525E-004	4.4419675E-008
2	0	0	0	1.638199958615587E+000	-5.8784347E-002	-5.8819793E-002	-8.881818872932129E-004	5.2242676E-008
2	0	0	0	1.688199957352481E+000	-6.3781686E-002	-6.3824140E-002	-9.520881326838399E-004	6.0766205E-008
2	0	0	0	1.738199956089375E+000	-6.8782844E-002	-6.8817660E-002	-1.014932063738205E-003	6.9845250E-008
2	0	0	1	1.788299954823742E+000	-7.3794171E-002	-7.3823951E-002	-1.081278069308991E-003	7.9824218E-008
2	0	0	1	1.838399953558110E+000	-7.8801356E-002	-7.8838535E-002	-1.149489906558760E-003	9.0624098E-008
2	0	0	1	1.888399952295003E+000	-8.3803780E-002	-8.3844095E-002	-1.219326986836998E-003	1.0223336E-007
2	0	0	0	1.938499951029371E+000	-8.8812873E-002	-8.8852234E-002	-1.291627048313254E-003	1.1476395E-007
2	0	0	0	1.988599949763739E+000	-9.3822084E-002	-9.3856014E-002	-1.369264126635079E-003	1.2851368E-007
2	0	0	0	2.038599948500632E+000	-9.8824568E-002	-9.8848343E-002	-1.444660620524665E-003	1.4280231E-007
2	0	0	1	2.088699947235000E+000	-1.0383155E-001	-1.0385394E-001	-1.521566152674670E-003	1.5802064E-007
2	0	0	1	2.138799945969367E+000	-1.0884300E-001	-1.0888252E-001	-1.605655388770635E-003	1.7482780E-007
2	0	0	1	2.188799944706261E+000	-1.1384419E-001	-1.1388838E-001	-1.692002128719929E-003	1.9269939E-007
2	0	0	1	2.238799943443155E+000	-1.1884167E-001	-1.1888049E-001	-1.778873181559611E-003	2.1147331E-007
2	0	0	0	2.288999942174996E+000	-1.2386402E-001	-1.2388779E-001	-1.874432654133589E-003	2.3221932E-007
2	0	0	0	2.338999940911890E+000	-1.2886286E-001	-1.2889694E-001	-1.973845537564443E-003	2.5442264E-007
2	0	0	0	2.388999939648784E+000	-1.3386235E-001	-1.3388246E-001	-2.079291986221296E-003	2.7838072E-007
2	0	0	1	2.439199938380625E+000	-1.3888477E-001	-1.3891795E-001	-2.185027512022431E-003	3.0353954E-007
2	0	0	1	2.489199937117519E+000	-1.4388163E-001	-1.4392240E-001	-2.292100538787110E-003	3.2988461E-007
2	0	0	1	2.539199935854413E+000	-1.4888336E-001	-1.4894278E-001	-2.394163579516696E-003	3.5659338E-007
2	0	0	0	2.589299934588780E+000	-1.5389392E-001	-1.5394461E-001	-2.507246204663437E-003	3.8597705E-007
2	0	0	0	2.639399933323148E+000	-1.5890183E-001	-1.5894921E-001	-2.640467926961432E-003	4.1970029E-007
2	0	0	0	2.689399932060041E+000	-1.6390401E-001	-1.6395552E-001	-2.772127655733633E-003	4.5450565E-007
2	0	0	1	2.739499930794409E+000	-1.6891268E-001	-1.6896150E-001	-2.904578985941580E-003	4.9076203E-007
2	0	0	1	2.789599929528777E+000	-1.7392249E-001	-1.7398351E-001	-3.043566365467254E-003	5.2953038E-007
2	0	0	1	2.839599928265670E+000	-1.7892505E-001	-1.7898121E-001	-3.183922350925246E-003	5.6986227E-007
2	0	0	0	2.889699927000038E+000	-1.8393146E-001	-1.8400106E-001	-3.330295862970015E-003	6.1277797E-007
2	0	0	0	2.939799925734405E+000	-1.8894343E-001	-1.8900782E-001	-3.490842825069045E-003	6.5979657E-007
2	0	0	0	2.989799924471299E+000	-1.9394398E-001	-1.9402014E-001	-3.656275538100554E-003	7.0939109E-007
2	0	0	0	3.039799923208193E+000	-1.9894172E-001	-1.9900471E-001	-3.823090813747808E-003	7.6081307E-007
2	0	0	1	3.089999921940034E+000	-2.0396422E-001	-2.0403826E-001	-4.003987625677063E-003	8.1696669E-007
2	0	0	1	3.139999920676928E+000	-2.0896278E-001	-2.0904185E-001	-4.197612351953914E-003	8.7747662E-007
2	0	0	1	3.189999919413822E+000	-2.1396297E-001	-2.1403646E-001	-4.393844928100688E-003	9.4044304E-007
2	0	0	0	3.240099918148189E+000	-2.1897505E-001	-2.1904522E-001	-4.600530551091296E-003	1.0077242E-006
2	0	0	0	3.290199916882557E+000	-2.2398150E-001	-2.2406115E-001	-4.806489546113096E-003	1.0769476E-006
2	0	0	0	3.340199915619451E+000	-2.2898370E-001	-2.2905131E-001	-5.029124380464128E-003	1.1519276E-006
2	0	0	1	3.390299914353818E+000	-2.3399378E-001	-2.3407812E-001	-5.264287131380219E-003	1.2322545E-006
2	0	0	1	3.440399913088186E+000	-2.3900221E-001	-2.3908280E-001	-5.506139350353031E-003	1.3164232E-006
2	0	0	1	3.490399911825079E+000	-2.4400450E-001	-2.4407920E-001	-5.753987208049760E-003	1.4044286E-006
2	0	0	0	3.540499910559447E+000	-2.4901254E-001	-2.4907233E-001	-6.021990759351989E-003	1.4999113E-006
2	0	0	0	3.590599909293815E+000	-2.5402313E-001	-2.5407577E-001	-6.312421296658294E-003	1.6038333E-006
2	0	0	0	3.640599908030708E+000	-2.5902519E-001	-2.5909808E-001	-6.597793827605378E-003	1.7094758E-006
2	0	0	0	3.690599906767602E+000	-2.6402122E-001	-2.6406765E-001	-6.889490189208744E-003	1.8192915E-006
2	0	0	1	3.740799905499443E+000	-2.6904374E-001	-2.6910338E-001	-7.188711962982944E-003	1.9345066E-006
2	0	0	1	3.790799904236337E+000	-2.7404371E-001	-2.7408776E-001	-7.518289876797424E-003	2.0606712E-006
2	0	0	1	3.840799902973231E+000	-2.7904239E-001	-2.7908215E-001	-7.866991666337688E-003	2.1955370E-006
2	0	0	0	3.890999901705072E+000	-2.8406462E-001	-2.8411260E-001	-8.207314854773676E-003	2.3318016E-006
2	0	0	0	3.940999900441966E+000	-2.8906259E-001	-2.8910795E-001	-8.585193047604522E-003	2.4820476E-006
2	0	0	0	3.990999899178860E+000	-2.9406303E-001	-2.9411063E-001	-8.973031067645243E-003	2.6390637E-006
2	0	0	1	4.041099897913227E+000	-2.9907477E-001	-2.9913417E-001	-9.363770571408331E-003	2.8010236E-006
2	0	0	1	4.091199896647595E+000	-3.0408183E-001	-3.0414450E-001	-9.790292103966064E-003	2.9776636E-006
2	0	0	1	4.156499894997978E+000	-3.1061131E-001	-3.1064373E-001	-1.037244489593013E-002	3.2221351E-006
2	0	0	0	4.221799893348361E+000	-3.1714407E-001	-3.1718650E-001	-1.098540783688928E-002	3.4844231E-006
2	0	0	1	4.271899892082729E+000	-3.2215387E-001	-3.2220080E-001	-1.147438599554519E-002	3.6970564E-006
2	0	0	1	4.321999890817096E+000	-3.2716241E-001	-3.2718793E-001	-1.199016187747842E-002	3.9230363E-006
2	0	0	1	4.371999889553990E+000	-3.3216497E-001	-3.3218607E-001	-1.252706150130825E-002	4.1613152E-006
2	0	0	0	4.422099888288358E+000	-3.3717239E-001	-3.3719647E-001	-1.306165561515264E-002	4.4043441E-006
2	0	0	0	4.472199887022725E+000	-3.4218335E-001	-3.4221357E-001	-1.363241433190632E-002	4.6651971E-006
2	0	0	0	4.522199885759619E+000	-3.4718484E-001	-3.4722623E-001	-1.422694735509358E-002	4.9399691E-006
2	0	0	0	4.572199884496513E+000	-3.5218203E-001	-3.5222697E-001	-1.484151443406408E-002	5.2275818E-006
2	0	0	1	4.622399883228354E+000	-3.5720423E-001	-3.5724294E-001	-1.550135605494626E-002	5.5377500E-006
2	0	0	1	4.672399881965248E+000	-3.6220351E-001	-3.6225364E-001	-1.618069796475469E-002	5.8615165E-006
2	0	0	1	4.722399880702142E+000	-3.6720267E-001	-3.6723712E-001	-1.687027846215339E-002	6.1953924E-006
2	0	0	0	4.772599879433983E+000	-3.7222484E-001	-3.7224907E-001	-1.758297205794868E-002	6.5452450E-006
2	0	0	0	4.822599878170877E+000	-3.7722230E-001	-3.7726542E-001	-1.836383336523136E-002	6.9280395E-006
2	0	0	0	4.872599876907771E+000	-3.8222378E-001	-3.8227060E-001	-1.914561220258171E-002	7.3188048E-006
2	0	0	1	4.922699875642138E+000	-3.8723511E-001	-3.8727495E-001	-1.996992236076622E-002	7.7338509E-006
2	0	0	1	4.972799874376506E+000	-3.9224195E-001	-3.9227465E-001	-2.081370050125020E-002	8.1646867E-006
2	0	0	1	5.022799873113399E+000	-3.9724463E-001	-3.9729214E-001	-2.169934847167855E-002	8.6209802E-006
2	0	0	0	5.072899871847767E+000	-4.0225342E-001	-4.0231258E-001	-2.261932986092752E-002	9.1000411E-006
2	0	0	0	5.122999870582134E+000	-4.0726286E-001	-4.0728685E-001	-2.357657704830984E-002	9.6024296E-006
2	0	0	0	5.172999869319028E+000	-4.1226530E-001	-4.1230345E-001	-2.456868860798561E-002	1.0129755E-005
2	0	0	1	5.223099868053396E+000	-4.1727251E-001	-4.1730940E-001	-2.562244540501135E-002	1.0692487E-005
2	0	0	1	5.273199866787763E+000	-4.2228374E-001	-4.2231673E-001	-2.673346222985895E-002	1.1289988E-005
2	0	0	1	5.323199865524657E+000	-4.2728490E-001	-4.2731431E-001	-2.785997545440877E-002	1.1904966E-005
2	0	0	1	5.373199864261551E+000	-4.3228227E-001	-4.3230543E-001	-2.899063088915005E-002	1.2532807E-005
2	0	0	0	5.423399862993392E+000	-4.3730435E-001	-4.3734953E-001	-3.018375938300022E-002	1.3200853E-005
2	0	0	0	5.473399861730286E+000	-4.4230345E-001	-4.4234419E-001	-3.141919227605189E-002	1.3898097E-005
2	0	0	0	5.523399860467180E+000	-4.4730332E-001	-4.4733995E-001	-3.269107729849075E-002	1.4624025E-005
2	0	0	1	5.573599859199021E+000	-4.5232558E-001	-4.5236525E-001	-3.406657283748223E-002	1.5410535E-005
2	0	0	1	5.623599857935915E+000	-4.5732218E-001	-4.5735899E-001	-3.543364623239633E-002	1.6205897E-005
2	0	0	1	5.673599856672809E+000	-4.6232402E-001	-4.6238589E-001	-3.689312493784186E-002	1.7058861E-005
2	0	0	0	5.723699855407176E+000	-4.6733442E-001	-4.6736550E-001	-3.840458698212873E-002	1.7948980E-005
2	0	0	0	5.773799854141544E+000	-4.7234225E-001	-4.7238541E-001	-3.995345429823860E-002	1.8873428E-005
2	0	0	0	5.823799852878437E+000	-4.7734487E-001	-4.7738120E-001	-4.155289112189697E-002	1.9836569E-005
2	0	0	1	5.873899851612805E+000	-4.8235369E-001	-4.8240215E-001	-4.322134494193741E-002	2.0850070E-005
2	0	0	1	5.923999850347172E+000	-4.8736310E-001	-4.8741585E-001	-4.493138769755112E-002	2.1900270E-005
2	0	0	1	5.973999849084066E+000	-4.9236587E-001	-4.9241781E-001	-4.670199954188048E-002	2.2996897E-005
2	0	0	0	6.024099847818434E+000	-4.9737191E-001	-4.9743339E-001	-4.857566681517311E-002	2.4163159E-005
2	0	0	0	6.074199846552801E+000	-5.0238413E-001	-5.0244141E-001	-5.048617493329921E-002	2.5366344E-005
2	0	0	0	6.124199845289695E+000	-5.0738460E-001	-5.0744420E-001	-5.246553606644566E-002	2.6623333E-005
2	0	0	0	6.174199844026589E+000	-5.1238281E-001	-5.1243925E-001	-5.448051464231873E-002	2.7917955E-005
2	0	0	1	6.224399842758430E+000	-5.1740497E-001	-5.1748574E-001	-5.662643138599816E-002	2.9303370E-005
2	0	0	1	6.274399841495324E+000	-5.2240348E-001	-5.2246779E-001	-5.879885192038503E-002	3.0720505E-005
2	0	0	1	6.324399840232218E+000	-5.2740335E-001	-5.2745998E-001	-6.101092080688830E-002	3.2180818E-005
2	0	0	0	6.374499838966585E+000	-5.3241557E-001	-5.3247947E-001	-6.331128612782766E-002	3.3711960E-005
2	0	0	0	6.424599837700953E+000	-5.3742200E-001	-5.3748775E-001	-6.575257931352418E-002	3.5341207E-005
2	0	0	0	6.474599836437847E+000	-5.4242462E-001	-5.4248345E-001	-6.823087688182872E-002	3.7014121E-005
2	0	0	1	6.524699835172214E+000	-5.4743463E-001	-5.4749042E-001	-7.082816150501403E-002	3.8777740E-005
2	0	0	1	6.574799833906582E+000	-5.5244267E-001	-5.5251539E-001	-7.346320712175369E-002	4.0589552E-005
2	0	0	1	6.624799832643475E+000	-5.5744523E-001	-5.5752653E-001	-7.618302228007812E-002	4.2474057E-005
2	0	0	0	6.674899831377843E+000	-5.6245291E-001	-5.6251186E-001	-7.901079239861392E-002	4.4444507E-005
2	0	0	0	6.724999830112210E+000	-5.6746364E-001	-5.6752354E-001	-8.194986941875237E-002	4.6508481E-005
2	0	0	0	6.774999828849104E+000	-5.7246566E-001	-5.7253540E-001	-8.500340295969044E-002	4.8667458E-005
2	0	0	0	6.824999827585998E+000	-5.7746226E-001	-5.7752442E-001	-8.805558132602187E-002	5.0854247E-005
2	0	0	1	6.875199826317839E+000	-5.8248425E-001	-5.8253199E-001	-9.127524261445230E-002	5.3170748E-005
2	0	0	1	6.925199825054733E+000	-5.8748454E-001	-5.8753717E-001	-9.457880667124630E-002	5.5568566E-005
2	0	0	1	6.975199823791627E+000	-5.9248269E-001	-5.9255308E-001	-9.797463283597097E-002	5.8055171E-005
2	0	0	0	7.040399822144536E+000	-5.9900349E-001	-5.9907889E-001	-1.025762275245280E-001	6.1451254E-005
2	0	0	0	7.105399820502498E+000	-6.0550541E-001	-6.0557121E-001	-1.072958856122775E-001	6.4975298E-005
2	0	0	1	7.155499819236866E+000	-6.1051321E-001	-6.1058456E-001	-1.110305673206389E-001	6.7793553E-005
2	0	0	1	7.205599817971233E+000	-6.1552393E-001	-6.1559123E-001	-1.149312403414157E-001	7.0750662E-005
2	0	0	1	7.255599816708127E+000	-6.2052572E-001	-6.2060511E-001	-1.189188262112770E-001	7.3801632E-005
2	0	0	1	7.305599815445021E+000	-6.2552202E-001	-6.2560236E-001	-1.228944244318058E-001	7.6883043E-005
2	0	0	0	7.355799814176862E+000	-6.3054454E-001	-6.3061816E-001	-1.270835064723159E-001	8.0141166E-005
2	0	0	0	7.405799812913756E+000	-6.3554424E-001	-6.3561469E-001	-1.313885113909161E-001	8.3512467E-005
2	0	0	0	7.455799811650650E+000	-6.4054334E-001	-6.4060426E-001	-1.358783434304969E-001	8.7044245E-005
2	0	0	1	7.505999810382491E+000	-6.4556539E-001	-6.4561504E-001	-1.404816849607133E-001	9.0697089E-005
2	0	0	1	7.555999809119385E+000	-6.5056318E-001	-6.5062106E-001	-1.451569306877327E-001	9.4442155E-005
2	0	0	1	7.605999807856278E+000	-6.5556413E-001	-6.5560001E-001	-1.499774434657861E-001	9.8325210E-005
2	0	0	0	7.656099806590646E+000	-6.6057527E-001	-6.6061276E-001	-1.549396957733069E-001	1.0235514E-004
2	0	0	0	7.706199805325014E+000	-6.6558272E-001	-6.6562313E-001	-1.600246305701198E-001	1.0651610E-004
2	0	0	0	7.756199804061907E+000	-6.7058492E-001	-6.7062777E-001	-1.652005189647614E-001	1.1078805E-004
2	0	0	1	7.806299802796275E+000	-6.7559415E-001	-6.7564124E-001	-1.705842381571019E-001	1.1525374E-004
2	0	0	1	7.856399801530642E+000	-6.8060368E-001	-6.8063420E-001	-1.760801300932959E-001	1.1984616E-004
2	0	0	1	7.906399800267536E+000	-6.8560600E-001	-6.8563318E-001	-1.817015624514022E-001	1.2458062E-004
2	0	0	0	7.956499799001904E+000	-6.9061273E-001	-6.9065291E-001	-1.875068209345785E-001	1.2950214E-004
2	0	0	0	8.006599797736271E+000	-6.9562429E-001	-6.9566560E-001	-1.934699836445681E-001	1.3459042E-004
2	0	0	0	8.056599796473165E+000	-7.0062530E-001	-7.0065665E-001	-1.995323522987142E-001	1.3980367E-004
2	0	0	0	8.106599795210059E+000	-7.0562291E-001	-7.0565319E-001	-2.056972547043048E-001	1.4515093E-004
2	0	0	1	8.156799793941900E+000	-7.1064520E-001	-7.1068358E-001	-2.119804930471640E-001	1.5065106E-004
2	0	0	1	8.206799792678794E+000	-7.1564448E-001	-7.1568966E-001	-2.184353679853817E-001	1.5633194E-004
2	0	0	1	8.256799791415688E+000	-7.2064340E-001	-7.2067297E-001	-2.250909848344866E-001	1.6221698E-004
2	0	0	0	8.306999790147529E+000	-7.2566593E-001	-7.2568375E-001	-2.318826289370215E-001	1.6827346E-004
2	0	0	0	8.356999788884423E+000	-7.3066288E-001	-7.3068374E-001	-2.388408325112714E-001	1.7451712E-004
2	0	0	0	8.406999787621317E+000	-7.3566455E-001	-7.3568952E-001	-2.459662535195097E-001	1.8095480E-004
2	0	0	1	8.457099786355684E+000	-7.4067527E-001	-7.4070138E-001	-2.532312653877229E-001	1.8756874E-004
2	0	0	1	8.507199785090052E+000	-7.4568337E-001	-7.4570352E-001	-2.606711941938591E-001	1.9438342E-004
2	0	0	1	8.557199783826945E+000	-7.5068557E-001	-7.5071663E-001	-2.683311351623425E-001	2.0144065E-004
2	0	0	0	8.607299782561313E+000	-7.5569391E-001	-7.5572103E-001	-2.761110884307714E-001	2.0866295E-004
2	0	0	0	8.657399781295680E+000	-7.6070386E-001	-7.6073754E-001	-2.839953371614485E-001	2.1604591E-004
2	0	0	0	8.707399780032574E+000	-7.6570600E-001	-7.6574385E-001	-2.919927150663844E-001	2.2359163E-004
2	0	0	1	8.757499778766942E+000	-7.7071279E-001	-7.7075207E-001	-3.003059555558805E-001	2.3146144E-004
2	0	0	1	8.807599777501309E+000	-7.7572495E-001	-7.7577043E-001	-3.088009305566164E-001	2.3955863E-004
2	0	0	1	8.857599776238203E+000	-7.8072560E-001	-7.8076613E-001	-3.174597275011770E-001	2.4786181E-004
2	0	0	1	8.907599774975097E+000	-7.8572291E-001	-7.8576082E-001	-3.260143473578476E-001	2.5616930E-004
2	0	0	0	8.957799773706938E+000	-7.9074568E-001	-7.9078943E-001	-3.352383825843770E-001	2.6510298E-004
2	0	0	0	9.007799772443832E+000	-7.9574400E-001	-7.9579127E-001	-3.444828427044875E-001	2.7413643E-004
2	0	0	0	9.057799771180726E+000	-8.0074400E-001	-8.0078304E-001	-3.538287979300598E-001	2.8334011E-004
2	0	0	1	9.107999769912567E+000	-8.0576640E-001	-8.0579966E-001	-3.634118015412477E-001	2.9283710E-004
2	0	0	1	9.157999768649461E+000	-8.1076306E-001	-8.1082153E-001	-3.731836914289781E-001	3.0258537E-004
2	0	0	1	9.207999767386355E+000	-8.1576502E-001	-8.1583130E-001	-3.830739332706274E-001	3.1252371E-004
2	0	0	0	9.258099766120722E+000	-8.2077527E-001	-8.2083023E-001	-3.931938351947917E-001	3.2274539E-004
2	0	0	0	9.308199764855090E+000	-8.2578319E-001	-8.2585067E-001	-4.033622036740230E-001	3.3311694E-004
2	0	0	0	9.358199763591983E+000	-8.3078563E-001	-8.3084720E-001	-4.140254461287194E-001	3.4399188E-004
2	0	0	1	9.408299762326351E+000	-8.3579391E-001	-8.3585536E-001	-4.247633352268849E-001	3.5504071E-004
2	0	0	1	9.458399761060718E+000	-8.4080440E-001	-8.4084427E-001	-4.355061233066468E-001	3.6619283E-004
2	0	0	1	9.508399759797612E+000	-8.4580678E-001	-8.4586209E-001	-4.464978917737494E-001	3.7767563E-004
2	0	0	1	9.558399758534506E+000	-8.5080272E-001	-8.5086000E-001	-4.578649091175329E-001	3.8957893E-004
2	0	0	0	9.608599757266347E+000	-8.5582507E-001	-8.5588181E-001	-4.694861210549257E-001	4.0182463E-004
2	0	0	0	9.658599756003241E+000	-8.6082488E-001	-8.6088079E-001	-4.810176072286945E-001	4.1409882E-004
2	0	0	0	9.708599754740135E+000	-8.6582386E-001	-8.6589074E-001	-4.928434613819155E-001	4.2674859E-004
2	0	0	1	9.758799753471976E+000	-8.7084591E-001	-8.7090796E-001	-5.049329428035001E-001	4.3975012E-004
2	0	0	1	9.808799752208870E+000	-8.7584418E-001	-8.7588978E-001	-5.170417572290269E-001	4.5287158E-004
2	0	0	1	9.858799750945764E+000	-8.8084435E-001	-8.8088679E-001	-5.294933362932079E-001	4.6642369E-004
2	0	0	0	9.908899749680131E+000	-8.8585669E-001	-8.8591093E-001	-5.420790422623192E-001	4.8023375E-004
2	0	0	0	9.958999748414499E+000	-8.9086276E-001	-8.9089286E-001	-5.550014882571261E-001	4.9444684E-004
2	0	0	0	1.000899974715139E+001	-8.9586508E-001	-8.9590108E-001	-5.681545301930377E-001	5.0901028E-004
2	0	0	1	1.005909974588576E+001	-9.0087521E-001	-9.0091842E-001	-5.814130454650588E-001	5.2380573E-004
2	0	0	1	1.010919974462013E+001	-9.0588409E-001	-9.0593839E-001	-5.948881679140889E-001	5.3893204E-004
2	0	0	1	1.015919974335702E+001	-9.1088629E-001	-9.1093868E-001	-6.085491712020144E-001	5.5435096E-004
2	0	0	0	1.020929974209139E+001	-9.1589391E-001	-9.1593450E-001	-6.225147187900126E-001	5.7018269E-004
2	0	0	0	1.025939974082576E+001	-9.2090458E-001	-9.2094314E-001	-6.367055039933494E-001	5.8636954E-004
2	0	0	0	1.030939973956265E+001	-9.2590600E-001	-9.2594999E-001	-6.509896311354950E-001	6.0278387E-004
2	0	0	0	1.035939973829954E+001	-9.3090308E-001	-9.3095791E-001	-6.656552674239382E-001	6.1969704E-004
2	0	0	1	1.040959973703139E+001	-9.3592560E-001	-9.3597209E-001	-6.806036493107506E-001	6.3702604E-004
2	0	0	1	1.045959973576828E+001	-9.4092518E-001	-9.4098634E-001	-6.955886572669492E-001	6.5453944E-004
2	0	0	1	1.050959973450517E+001	-9.4592398E-001	-9.4597656E-001	-7.106301357993825E-001	6.7223946E-004
2	0	0	0	1.055979973323701E+001	-9.5094633E-001	-9.5098948E-001	-7.259749127339017E-001	6.9039449E-004
2	0	0	0	1.060979973197391E+001	-9.5594341E-001	-9.5596236E-001	-7.416545557598493E-001	7.0899382E-004
2	0	0	0	1.065979973071080E+001	-9.6094471E-001	-9.6096843E-001	-7.574232694719711E-001	7.2785985E-004
2	0	0	1	1.070989972944517E+001	-9.6595615E-001	-9.6599454E-001	-7.736816014817816E-001	7.4737222E-004
2	0	0	1	1.075999972817954E+001	-9.7096354E-001	-9.7100216E-001	-7.901219037703751E-001	7.6721009E-004
2	0	0	1	1.080999972691643E+001	-9.7596562E-001	-9.7599870E-001	-8.069121700655719E-001	7.8754523E-004
2	0	0	0	1.086009972565080E+001	-9.8097515E-001	-9.8100871E-001	-8.236836458558727E-001	8.0804084E-004
2	0	0	0	1.091019972438517E+001	-9.8598397E-001	-9.8603451E-001	-8.406744320176927E-001	8.2893402E-004
2	0	0	0	1.096019972312206E+001	-9.9098617E-001	-9.9102134E-001	-8.579234705977328E-001	8.5022044E-004
2	0	0	1	1.101029972185643E+001	-9.9599367E-001	-9.9601781E-001	-8.753705307591062E-001	8.7188464E-004
2	0	0	1	1.104279972103541E+001	-9.9924600E-001	-9.9928182E-001	-8.867507204111540E-001	8.8611385E-004
2	0	0	1	1.105039972084342E+001	-1.0000215E+000	-1.0000951E+000	-8.893800377845764E-001	8.8946463E-004