EC-Lab ASCII FILE
Nb header lines : 55                          

I-V Characterization

Run on channel : 1 (SN 6514)
User : 
CE vs. WE compliance from -10 V to 10 V
Electrode connection : standard
Ewe ctrl range : min = -1.10 V, max = 0.20 V
Safety Limits :
	Do not start on E overload
Acquisition started on : 06/15/2016 19:04:37
Saved on :
	File : B125-G54-UN-G-D1GB-C14 BW 10mVs dark_C01.mpr
	Directory : E:\EC-Lab measurements\B125-G54-UN-G-D1GB\
	Host : 10.0.2.15
Device : VSP (SN 0295)
Address : USB
EC-Lab for windows v11.01 (software)
Internet server v11.00 (firmware)
Command interpretor v11.00 (firmware)
Electrode material : 
Initial state : 
Electrolyte : 
Comments : 
Electrode surface area : 0.001 cm²
Characteristic mass : 0.001 g
Equivalent Weight : 0.000 g/eq.
Density : 0.000 g/cm3
tR (h:m:s)          0:00:0.0000         
dER/dt (mV/h)       0.0                 
dER (mV)            0                   
dtR (s)             0.0000              
dE/dt               10.000              
dE/dt unit          mV/s                
Ei (V)              -1.000              
vs.                 Ref                 
EL (V)              0.100               
vs.                 Ref                 
record              <I>                 
dI                  0.000               
unit dI             µA                  
tI (s)              0.1000              
step percent        100                 
N                   100                 
E range min (V)     -1.100              
E range max (V)     0.200               
I Range             Auto                
I Range min         Unset               
I Range max         Unset               
I Range init        Unset               
Bandwidth           5                   

mode	ox/red	error	control changes	time/s	control/V	Ewe/V	<I>/mA	P/W
2	1	0	0	8.499999785271939E-002	-9.9972111E-001	-9.9978966E-001	-8.077782690525082E-002	8.0760838E-005
2	1	0	1	3.377999914664542E-001	-9.9719477E-001	-9.9721110E-001	-9.064815232771301E-002	9.0395341E-005
2	1	0	0	8.383999788202345E-001	-9.9218845E-001	-9.9220222E-001	-1.003472905591145E-001	9.9564808E-005
2	1	0	1	1.338999966174015E+000	-9.8718262E-001	-9.8722291E-001	-9.960944886657830E-002	9.8336728E-005
2	1	0	0	1.839599953527795E+000	-9.8217642E-001	-9.8222381E-001	-9.604283727438312E-002	9.4335563E-005
2	1	0	1	2.340199940881575E+000	-9.7717053E-001	-9.7719985E-001	-9.231939203967687E-002	9.0214497E-005
2	1	0	0	2.840799928235356E+000	-9.7216457E-001	-9.7219157E-001	-8.913529832007527E-002	8.6656582E-005
2	1	0	0	3.341599915584084E+000	-9.6715641E-001	-9.6719497E-001	-8.639509018280855E-002	8.3560895E-005
2	1	0	1	3.842199902937864E+000	-9.6215063E-001	-9.6217602E-001	-8.410838227701638E-002	8.0927071E-005
2	1	0	0	4.342799890291644E+000	-9.5714438E-001	-9.5716977E-001	-8.203452066716109E-002	7.8520963E-005
2	1	0	1	4.843399877645425E+000	-9.5213872E-001	-9.5217443E-001	-8.018071114034070E-002	7.6346019E-005
2	1	0	0	5.343999864999205E+000	-9.4713229E-001	-9.4719112E-001	-7.850839691713873E-002	7.4362455E-005
2	1	0	1	5.844599852352985E+000	-9.4212669E-001	-9.4216007E-001	-7.688304463097606E-002	7.2436138E-005
2	1	0	0	6.345199839706765E+000	-9.3712044E-001	-9.3716532E-001	-7.539966178782964E-002	7.0661947E-005
2	1	0	1	6.845799827060546E+000	-9.3211466E-001	-9.3216574E-001	-7.392217152795344E-002	6.8907713E-005
2	1	0	0	7.346499814411800E+000	-9.2710739E-001	-9.2714244E-001	-7.252951200329383E-002	6.7245186E-005
2	1	0	0	7.847199801763054E+000	-9.2210078E-001	-9.2214173E-001	-7.113178415112165E-002	6.5593587E-005
2	1	0	1	8.347799789116834E+000	-9.1709447E-001	-9.1713482E-001	-6.982885674328876E-002	6.4042477E-005
2	1	0	0	8.848399776470615E+000	-9.1208875E-001	-9.1215092E-001	-6.851348002451330E-002	6.2494633E-005
2	1	0	1	9.348999763824395E+000	-9.0708238E-001	-9.0713018E-001	-6.722722376062829E-002	6.0983843E-005
2	1	0	0	9.849599751178175E+000	-9.0207654E-001	-9.0212941E-001	-6.597418422818158E-002	5.9517253E-005
2	1	0	1	1.035019973853196E+001	-8.9707035E-001	-8.9711583E-001	-6.469341768507819E-002	5.8037487E-005
2	1	0	0	1.085079972588574E+001	-8.9206445E-001	-8.9209312E-001	-6.352903701438617E-002	5.6673816E-005
2	1	0	1	1.135139971323952E+001	-8.8705838E-001	-8.8710088E-001	-6.233225697115863E-002	5.5295000E-005
2	1	0	0	1.185209970059077E+001	-8.8205129E-001	-8.8208401E-001	-6.109634145769560E-002	5.3892105E-005
2	1	0	0	1.235279968794202E+001	-8.7704456E-001	-8.7708426E-001	-6.000439031354787E-002	5.2628908E-005
2	1	0	1	1.285339967529580E+001	-8.7203830E-001	-8.7210339E-001	-5.885268136987964E-002	5.1325624E-005
2	1	0	0	1.335399966264958E+001	-8.6703265E-001	-8.6707479E-001	-5.771129256642382E-002	5.0040006E-005
2	1	0	1	1.385459965000337E+001	-8.6202633E-001	-8.6208183E-001	-5.664986738430765E-002	4.8836820E-005
2	1	0	0	1.435519963735715E+001	-8.5702056E-001	-8.5706955E-001	-5.557022114330323E-002	4.7627545E-005
2	1	0	1	1.485579962471093E+001	-8.5201430E-001	-8.5207224E-001	-5.450017744410865E-002	4.6438086E-005
2	1	0	0	1.535639961206471E+001	-8.4700859E-001	-8.4706098E-001	-5.348336630296047E-002	4.5303674E-005
2	1	0	1	1.585699959941849E+001	-8.4200227E-001	-8.4203249E-001	-5.240775104807116E-002	4.4129029E-005
2	1	0	0	1.635769958676974E+001	-8.3699554E-001	-8.3706003E-001	-5.138074873716947E-002	4.3008771E-005
2	1	0	0	1.685839957412099E+001	-8.3198833E-001	-8.3204895E-001	-5.037772565492643E-002	4.1916734E-005
2	1	0	1	1.735899956147478E+001	-8.2698250E-001	-8.2704550E-001	-4.941852350255713E-002	4.0871368E-005
2	1	0	0	1.785959954882856E+001	-8.2197624E-001	-8.2204050E-001	-4.845031926779975E-002	3.9828126E-005
2	1	0	1	1.836019953618234E+001	-8.1697041E-001	-8.1700945E-001	-4.748249712602720E-002	3.8793649E-005
2	1	0	0	1.886079952353612E+001	-8.1196427E-001	-8.1201488E-001	-4.651587028564141E-002	3.7771581E-005
2	1	0	1	1.936139951088990E+001	-8.0695838E-001	-8.0700862E-001	-4.561266828336796E-002	3.6809815E-005
2	1	0	0	1.986199949824368E+001	-8.0195230E-001	-8.0197716E-001	-4.468712847595258E-002	3.5838057E-005
2	1	0	1	2.036259948559746E+001	-7.9694617E-001	-7.9699773E-001	-4.375844943500184E-002	3.4875386E-005
2	1	0	1	2.086339947294618E+001	-7.9193836E-001	-7.9197532E-001	-4.291629817085346E-002	3.3988650E-005
2	1	0	0	2.136399946029997E+001	-7.8693223E-001	-7.8696567E-001	-4.206806525908457E-002	3.3106124E-005
2	1	0	1	2.186459944765375E+001	-7.8192645E-001	-7.8197753E-001	-4.112983836196862E-002	3.2162610E-005
2	1	0	0	2.236519943500753E+001	-7.7692014E-001	-7.7694994E-001	-4.025851797459035E-002	3.1278854E-005
2	1	0	1	2.286579942236131E+001	-7.7191436E-001	-7.7194935E-001	-3.946369907984722E-002	3.0463976E-005
2	1	0	0	2.336639940971509E+001	-7.6690811E-001	-7.6694065E-001	-3.862580141087801E-002	2.9623698E-005
2	1	0	1	2.386699939706887E+001	-7.6190245E-001	-7.6193130E-001	-3.776342183796899E-002	2.8773133E-005
2	1	0	0	2.436759938442265E+001	-7.5689614E-001	-7.5693029E-001	-3.691369187505111E-002	2.7941092E-005
2	1	0	1	2.486829937177390E+001	-7.5188935E-001	-7.5191087E-001	-3.612791830745371E-002	2.7164975E-005
2	1	0	1	2.536899935912516E+001	-7.4688232E-001	-7.4691021E-001	-3.538402221864567E-002	2.6428688E-005
2	1	0	0	2.586959934647894E+001	-7.4187636E-001	-7.4189228E-001	-3.463857221084835E-002	2.5698089E-005
2	1	0	1	2.637019933383272E+001	-7.3687017E-001	-7.3689634E-001	-3.381328650707558E-002	2.4916886E-005
2	1	0	0	2.687079932118650E+001	-7.3186433E-001	-7.3187643E-001	-3.305257583121046E-002	2.4190402E-005
2	1	0	1	2.737139930854028E+001	-7.2685814E-001	-7.2687572E-001	-3.230883019111574E-002	2.3484505E-005
2	1	0	0	2.787199929589406E+001	-7.2185218E-001	-7.2186893E-001	-3.165250206765824E-002	2.2848957E-005
2	1	0	1	2.837259928324784E+001	-7.1684611E-001	-7.1687043E-001	-3.096534768850234E-002	2.2198143E-005
2	1	0	0	2.887319927060162E+001	-7.1184015E-001	-7.1186870E-001	-3.024491553570879E-002	2.1530408E-005
2	1	0	1	2.937389925795287E+001	-7.0683318E-001	-7.0685697E-001	-2.958499555681487E-002	2.0912361E-005
2	1	0	1	2.987459924530413E+001	-7.0182604E-001	-7.0185447E-001	-2.892784849112900E-002	2.0303140E-005
2	1	0	0	3.037519923265791E+001	-6.9682014E-001	-6.9684851E-001	-2.827452272919373E-002	1.9703059E-005
2	1	0	1	3.087579922001169E+001	-6.9181401E-001	-6.9183898E-001	-2.757166603255573E-002	1.9075153E-005
2	1	0	0	3.137639920736547E+001	-6.8680817E-001	-6.8684119E-001	-2.690742985260808E-002	1.8481131E-005
2	1	0	1	3.187699919471925E+001	-6.8180203E-001	-6.8182546E-001	-2.629347463562520E-002	1.7927561E-005
2	1	0	0	3.237759918207303E+001	-6.7679626E-001	-6.7681932E-001	-2.572724937033960E-002	1.7412700E-005
2	1	0	1	3.287819916942681E+001	-6.7179000E-001	-6.7182809E-001	-2.510099725338527E-002	1.6863554E-005
2	1	0	0	3.337879915678059E+001	-6.6678423E-001	-6.6680801E-001	-2.451429859811613E-002	1.6346330E-005
2	1	0	1	3.387949914413184E+001	-6.6177708E-001	-6.6181308E-001	-2.394345870702219E-002	1.5846093E-005
2	1	0	1	3.438019913148310E+001	-6.5677029E-001	-6.5680397E-001	-2.338530482313410E-002	1.5359561E-005
2	1	0	0	3.488079911883688E+001	-6.5176398E-001	-6.5181357E-001	-2.282606534939291E-002	1.4878339E-005
2	1	0	1	3.538139910619066E+001	-6.4675808E-001	-6.4678717E-001	-2.227152361949397E-002	1.4404935E-005
2	1	0	0	3.588199909354444E+001	-6.4175200E-001	-6.4178783E-001	-2.169271507530152E-002	1.3922120E-005
2	1	0	1	3.638259908089822E+001	-6.3674599E-001	-6.3680989E-001	-2.118082110121422E-002	1.3488157E-005
2	1	0	0	3.688319906825200E+001	-6.3173991E-001	-6.3181108E-001	-2.068797558484026E-002	1.3070892E-005
2	1	0	1	3.738379905560578E+001	-6.2673390E-001	-6.2679631E-001	-2.019943414996916E-002	1.2660931E-005
2	1	0	0	3.788439904295956E+001	-6.2172788E-001	-6.2180811E-001	-1.968595856026661E-002	1.2240888E-005
2	1	0	0	3.838519903030829E+001	-6.1671990E-001	-6.1678368E-001	-1.920186482086284E-002	1.1843397E-005
2	1	0	1	3.888579901766207E+001	-6.1171395E-001	-6.1179978E-001	-1.873199194867398E-002	1.1460228E-005
2	1	0	0	3.938639900501585E+001	-6.0670781E-001	-6.0677058E-001	-1.823013224657344E-002	1.1061507E-005
2	1	0	1	3.988699899236963E+001	-6.0170197E-001	-6.0175270E-001	-1.776163963429961E-002	1.0688114E-005
2	1	0	0	4.038759897972341E+001	-5.9669590E-001	-5.9676719E-001	-1.729559969538108E-002	1.0321446E-005
2	1	0	1	4.088819896707719E+001	-5.9168994E-001	-5.9175444E-001	-1.684939685270078E-002	9.9707049E-006
2	1	0	0	4.138879895443097E+001	-5.8668387E-001	-5.8673692E-001	-1.641513719928400E-002	9.6313670E-006
2	1	0	1	4.188939894178475E+001	-5.8167791E-001	-5.8173341E-001	-1.598093871059997E-002	9.2966457E-006
2	1	0	0	4.239009892913600E+001	-5.7667089E-001	-5.7673341E-001	-1.556250430248213E-002	8.9754158E-006
2	1	0	0	4.289079891648726E+001	-5.7166398E-001	-5.7172740E-001	-1.517006548414403E-002	8.6731425E-006
2	1	0	1	4.339139890384104E+001	-5.6665778E-001	-5.6671751E-001	-1.477053166980957E-002	8.3707191E-006
2	1	0	0	4.389199889119482E+001	-5.6165183E-001	-5.6171548E-001	-1.440248869101252E-002	8.0901009E-006
2	1	0	1	4.439259887854860E+001	-5.5664575E-001	-5.5670166E-001	-1.401608509472956E-002	7.8027779E-006
2	1	0	0	4.489319886590238E+001	-5.5163980E-001	-5.5170041E-001	-1.364843348878794E-002	7.5298462E-006
2	1	0	1	4.539379885325616E+001	-5.4663372E-001	-5.4668742E-001	-1.330294279619064E-002	7.2725516E-006
2	1	0	0	4.589439884060994E+001	-5.4162771E-001	-5.4168558E-001	-1.294226372108967E-002	7.0106375E-006
2	1	0	1	4.639499882796372E+001	-5.3662163E-001	-5.3667229E-001	-1.260951055595075E-002	6.7671749E-006
2	1	0	0	4.689569881531497E+001	-5.3161460E-001	-5.3167653E-001	-1.229422539350532E-002	6.5365512E-006
2	1	0	0	4.739639880266623E+001	-5.2660763E-001	-5.2666140E-001	-1.196987787548914E-002	6.3040725E-006
2	1	0	1	4.789699879002001E+001	-5.2160168E-001	-5.2164477E-001	-1.163232701599362E-002	6.0679426E-006
2	1	0	0	4.839759877737379E+001	-5.1659566E-001	-5.1666570E-001	-1.131822037924934E-002	5.8477362E-006
2	1	0	1	4.889819876472757E+001	-5.1158959E-001	-5.1163918E-001	-1.100594984235975E-002	5.6310751E-006
2	1	0	0	4.939879875208135E+001	-5.0658369E-001	-5.0665379E-001	-1.070247087003581E-002	5.4224474E-006
2	1	0	1	4.989939873943513E+001	-5.0157768E-001	-5.0162983E-001	-1.041075450202950E-002	5.2223450E-006
2	1	0	0	5.039999872678891E+001	-4.9657160E-001	-4.9663198E-001	-1.013334575852512E-002	5.0325434E-006
2	1	0	1	5.090059871414269E+001	-4.9156559E-001	-4.9161154E-001	-9.848772244721332E-003	4.8417701E-006
2	1	0	0	5.140129870149394E+001	-4.8655865E-001	-4.8660421E-001	-9.590488666070693E-003	4.6667724E-006
2	1	0	0	5.190199868884520E+001	-4.8155162E-001	-4.8159024E-001	-9.323256425779192E-003	4.4899894E-006
2	1	0	1	5.240259867619898E+001	-4.7654563E-001	-4.7659990E-001	-9.055355370282583E-003	4.3157816E-006
2	1	0	0	5.290319866355276E+001	-4.7153965E-001	-4.7157231E-001	-8.806599150743347E-003	4.1529483E-006
2	1	0	1	5.340379865090654E+001	-4.6653360E-001	-4.6656775E-001	-8.566321845752511E-003	3.9967695E-006
2	1	0	0	5.390439863826032E+001	-4.6152756E-001	-4.6155828E-001	-8.325581002723403E-003	3.8427411E-006
2	1	0	1	5.440499862561410E+001	-4.5652154E-001	-4.5655760E-001	-8.057642597094392E-003	3.6787781E-006
2	1	0	0	5.490559861296788E+001	-4.5151553E-001	-4.5156035E-001	-7.817040345021287E-003	3.5298654E-006
2	1	0	1	5.540619860032166E+001	-4.4650948E-001	-4.4654271E-001	-7.595365556208711E-003	3.3916551E-006
2	1	0	1	5.590699858767039E+001	-4.4150150E-001	-4.4154158E-001	-7.388575189604590E-003	3.2623632E-006
2	1	0	0	5.640759857502417E+001	-4.3649551E-001	-4.3652529E-001	-7.166753214340710E-003	3.1284690E-006
2	1	0	1	5.690819856237795E+001	-4.3148953E-001	-4.3152332E-001	-6.961840000842795E-003	3.0041963E-006
2	1	0	0	5.740879854973173E+001	-4.2648348E-001	-4.2651784E-001	-6.768633228413957E-003	2.8869429E-006
2	1	0	1	5.790939853708551E+001	-4.2147750E-001	-4.2152479E-001	-6.576971556805068E-003	2.7723565E-006
2	1	0	0	5.840999852443929E+001	-4.1647148E-001	-4.1651392E-001	-6.392378507335331E-003	2.6625146E-006
2	1	0	1	5.891059851179307E+001	-4.1146547E-001	-4.1149405E-001	-6.199758831978236E-003	2.5511638E-006
2	1	0	0	5.941119849914685E+001	-4.0645951E-001	-4.0649071E-001	-6.020029116166351E-003	2.4470860E-006
2	1	0	1	5.991189848649810E+001	-4.0145251E-001	-4.0149814E-001	-5.844267407737344E-003	2.3464625E-006
2	1	0	1	6.041259847384936E+001	-3.9644548E-001	-3.9649105E-001	-5.667096278887840E-003	2.2469530E-006
2	1	0	0	6.091319846120314E+001	-3.9143953E-001	-3.9146945E-001	-5.495929495324417E-003	2.1514884E-006
2	1	0	1	6.141379844855692E+001	-3.8643348E-001	-3.8646144E-001	-5.317767503076519E-003	2.0551120E-006
2	1	0	0	6.191439843591070E+001	-3.8142756E-001	-3.8146719E-001	-5.153602546275067E-003	1.9659303E-006
2	1	0	1	6.241499842326448E+001	-3.7642148E-001	-3.7645116E-001	-4.987483258704906E-003	1.8775439E-006
2	1	0	0	6.293309841017617E+001	-3.7124038E-001	-3.7127391E-001	-4.822368592252019E-003	1.7904197E-006
2	1	0	0	6.345129839708534E+001	-3.6605844E-001	-3.6610326E-001	-4.663971032506917E-003	1.7074950E-006
2	1	0	0	6.395199838443659E+001	-3.6105147E-001	-3.6108556E-001	-4.523001567587739E-003	1.6331905E-006
2	1	0	1	6.445259837179037E+001	-3.5604540E-001	-3.5609737E-001	-4.384928049940215E-003	1.5614613E-006
2	1	0	0	6.495319835914415E+001	-3.5103938E-001	-3.5107160E-001	-4.242286272459581E-003	1.4893462E-006
2	1	0	1	6.545379834649793E+001	-3.4603339E-001	-3.4606564E-001	-4.094515701108900E-003	1.4169711E-006
2	1	0	0	6.595439833385171E+001	-3.4102729E-001	-3.4105662E-001	-3.954551909091109E-003	1.3487261E-006
2	1	0	1	6.645499832120549E+001	-3.3602130E-001	-3.3603612E-001	-3.830517280353517E-003	1.2871922E-006
2	1	0	0	6.695559830855927E+001	-3.3101532E-001	-3.3103454E-001	-3.706493758299997E-003	1.2269775E-006
2	1	0	1	6.745619829591305E+001	-3.2600930E-001	-3.2603043E-001	-3.575897771684002E-003	1.1658515E-006
2	1	0	0	6.795689828326431E+001	-3.2100233E-001	-3.2105529E-001	-3.462831420940657E-003	1.1117604E-006
2	1	0	0	6.845759827061556E+001	-3.1599531E-001	-3.1604606E-001	-3.345636036171780E-003	1.0573751E-006
2	1	0	1	6.895819825796934E+001	-3.1098932E-001	-3.1102094E-001	-3.234018683960060E-003	1.0058475E-006
2	1	0	0	6.945879824532312E+001	-3.0598330E-001	-3.0603212E-001	-3.112233172030542E-003	9.5244332E-007
2	1	0	1	6.995939823267690E+001	-3.0097735E-001	-3.0101892E-001	-3.012348019455165E-003	9.0677378E-007
2	1	0	0	7.045999822003068E+001	-2.9597127E-001	-2.9600462E-001	-2.907863664087920E-003	8.6074107E-007
2	1	0	1	7.096059820738446E+001	-2.9096526E-001	-2.9101285E-001	-2.808254941937833E-003	8.1723829E-007
2	1	0	0	7.146119819473824E+001	-2.8595927E-001	-2.8600800E-001	-2.708773569362688E-003	7.7473089E-007
2	1	0	1	7.196189818208950E+001	-2.8095227E-001	-2.8099760E-001	-2.612275366101466E-003	7.3404311E-007
2	1	0	1	7.246259816944075E+001	-2.7594525E-001	-2.7596876E-001	-2.521106758597669E-003	6.9574673E-007
2	1	0	0	7.296319815679453E+001	-2.7093923E-001	-2.7097172E-001	-2.419931559439968E-003	6.5573300E-007
2	1	0	1	7.346379814414831E+001	-2.6593316E-001	-2.6596501E-001	-2.330429967555642E-003	6.1981285E-007
2	1	0	0	7.396439813150209E+001	-2.6092717E-001	-2.6096836E-001	-2.236730343046972E-003	5.8371586E-007
2	1	0	1	7.446499811885587E+001	-2.5592121E-001	-2.5595802E-001	-2.156112330674180E-003	5.5187422E-007
2	1	0	0	7.496559810620965E+001	-2.5091514E-001	-2.5095129E-001	-2.066565849105723E-003	5.1860735E-007
2	1	0	1	7.546619809356343E+001	-2.4590911E-001	-2.4594294E-001	-1.987347186278937E-003	4.8877399E-007
2	1	0	0	7.596679808091722E+001	-2.4090312E-001	-2.4097013E-001	-1.912106697391489E-003	4.6076062E-007
2	1	0	1	7.646749806826847E+001	-2.3589611E-001	-2.3595652E-001	-1.842030278534173E-003	4.3463905E-007
2	1	0	1	7.696819805561972E+001	-2.3088913E-001	-2.3095517E-001	-1.765692057243560E-003	4.0779571E-007
2	1	0	0	7.746879804297350E+001	-2.2588311E-001	-2.2594468E-001	-1.693668595587634E-003	3.8267541E-007
2	1	0	1	7.796939803032728E+001	-2.2087710E-001	-2.2093864E-001	-1.624222147320850E-003	3.5885344E-007
2	1	0	0	7.846999801768106E+001	-2.1587110E-001	-2.1594051E-001	-1.558699249297819E-003	3.3658631E-007
2	1	0	1	7.897059800503484E+001	-2.1086511E-001	-2.1092783E-001	-1.489010597151872E-003	3.1407376E-007
2	1	0	0	7.947119799238862E+001	-2.0585907E-001	-2.0592201E-001	-1.429292448336582E-003	2.9432277E-007
2	1	0	1	7.997179797974241E+001	-2.0085308E-001	-2.0091565E-001	-1.361350352909130E-003	2.7351658E-007
2	1	0	0	8.047239796709619E+001	-1.9584705E-001	-1.9590446E-001	-1.303188884053841E-003	2.5530051E-007
2	1	0	1	8.097309795444744E+001	-1.9084005E-001	-1.9089662E-001	-1.247930935021757E-003	2.3822579E-007
2	1	0	1	8.147379794179869E+001	-1.8583307E-001	-1.8589211E-001	-1.194124358251352E-003	2.2197830E-007
2	1	0	0	8.197439792915247E+001	-1.8082707E-001	-1.8088053E-001	-1.136395063692883E-003	2.0555174E-007
2	1	0	1	8.247499791650625E+001	-1.7582099E-001	-1.7588598E-001	-1.079138158379551E-003	1.8980526E-007
2	1	0	0	8.297559790386003E+001	-1.7081499E-001	-1.7087151E-001	-1.024065085746456E-003	1.7498355E-007
2	1	0	1	8.347619789121381E+001	-1.6580902E-001	-1.6585909E-001	-9.761183459583867E-004	1.6189810E-007
2	1	0	0	8.397679787856760E+001	-1.6080301E-001	-1.6084464E-001	-9.184440447621307E-004	1.4772679E-007
2	1	0	1	8.447739786592138E+001	-1.5579697E-001	-1.5584555E-001	-8.730643580476295E-004	1.3606319E-007
2	1	0	0	8.497799785327516E+001	-1.5079097E-001	-1.5082893E-001	-8.256653594139003E-004	1.2453422E-007
2	1	0	1	8.547869784062641E+001	-1.4578396E-001	-1.4583029E-001	-7.875994141821087E-004	1.1485585E-007
2	1	0	1	8.597939782797766E+001	-1.4077696E-001	-1.4080441E-001	-7.473021542775647E-004	1.0522344E-007
2	1	0	0	8.647999781533144E+001	-1.3577096E-001	-1.3578320E-001	-7.017912084217263E-004	9.5291455E-008
2	1	0	1	8.698059780268522E+001	-1.3076492E-001	-1.3078895E-001	-6.659094706549691E-004	8.7093603E-008
2	1	0	0	8.748119779003900E+001	-1.2575890E-001	-1.2578566E-001	-6.280975897987890E-004	7.9005673E-008
2	1	0	1	8.798179777739279E+001	-1.2075283E-001	-1.2076402E-001	-5.912497614343707E-004	7.1401701E-008
2	1	0	0	8.848239776474657E+001	-1.1574685E-001	-1.1576368E-001	-5.542866279258096E-004	6.4166258E-008
2	1	0	1	8.898299775210035E+001	-1.1074086E-001	-1.1076653E-001	-5.170373770792686E-004	5.7270437E-008
2	1	0	0	8.948359773945413E+001	-1.0573485E-001	-1.0575918E-001	-4.825508497976823E-004	5.1034181E-008
2	1	0	0	8.998439772680285E+001	-1.0072687E-001	-1.0074337E-001	-4.495016049302315E-004	4.5284306E-008
2	1	0	1	9.048499771415663E+001	-9.5720880E-002	-9.5736541E-002	-4.176364162181600E-004	3.9983068E-008
2	1	0	0	9.098559770151041E+001	-9.0714820E-002	-9.0746820E-002	-3.846862728104118E-004	3.4909057E-008
2	1	0	1	9.148619768886419E+001	-8.5708819E-002	-8.5737161E-002	-3.582683024462930E-004	3.0716908E-008
2	1	0	0	9.198679767621798E+001	-8.0702826E-002	-8.0730304E-002	-3.285812197399724E-004	2.6526461E-008
2	1	0	1	9.248739766357176E+001	-7.5696781E-002	-7.5726204E-002	-2.999522591190244E-004	2.2714246E-008
2	1	0	0	9.298799765092554E+001	-7.0690766E-002	-7.0726462E-002	-2.743001137028959E-004	1.9400277E-008
2	1	0	1	9.348859763827932E+001	-6.5684773E-002	-6.5711938E-002	-2.482850450700055E-004	1.6315292E-008
2	1	0	0	9.398929762563057E+001	-6.0677767E-002	-6.0706075E-002	-2.203029978911281E-004	1.3373731E-008
2	1	0	0	9.448999761298182E+001	-5.5670779E-002	-5.5707134E-002	-1.930184517005641E-004	1.0752505E-008
2	1	0	1	9.499059760033560E+001	-5.0664775E-002	-5.0694302E-002	-1.673868287158232E-004	8.4855580E-009
2	1	0	0	9.549119758768938E+001	-4.5658723E-002	-4.5685384E-002	-1.412366307509323E-004	6.4524497E-009
2	1	0	1	9.599179757504317E+001	-4.0652730E-002	-4.0690269E-002	-1.182266966133145E-004	4.8106763E-009
2	1	0	0	9.649239756239695E+001	-3.5646725E-002	-3.5678241E-002	-9.563431213114974E-005	3.4120640E-009
2	1	0	1	9.699299754975073E+001	-3.0640721E-002	-3.0669447E-002	-7.323609594507390E-005	2.2461106E-009
2	1	0	0	9.749359753710451E+001	-2.5634687E-002	-2.5659349E-002	-4.932640117878362E-005	1.2656833E-009
2	1	0	1	9.799419752445829E+001	-2.0628672E-002	-2.0665215E-002	-2.645657547902536E-005	5.4673083E-010
2	1	0	0	9.849489751180954E+001	-1.5621724E-002	-1.5635297E-002	-3.200873419227852E-006	5.0046606E-011
2	1	0	0	9.899559749916079E+001	-1.0614679E-002	-1.0680540E-002	1.924111423948362E-005	2.0550550E-010
2	1	0	1	9.949619748651457E+001	-5.6086816E-003	-5.6648036E-003	4.165707125404743E-005	2.3597913E-010
2	1	0	0	9.999679747386836E+001	-6.0268439E-004	-6.3739874E-004	6.395874603228610E-005	4.0767223E-011
2	1	0	1	1.004973974612221E+002	4.4033169E-003	4.3633147E-003	8.648017625657493E-005	3.7734021E-010
2	1	0	0	1.009979974485759E+002	9.4093317E-003	9.3654217E-003	1.089850595009415E-004	1.0206911E-009
2	1	0	1	1.014985974359297E+002	1.4415309E-002	1.4383856E-002	1.314895316474770E-004	1.8913264E-009
2	1	0	0	1.019991974232835E+002	1.9421341E-002	1.9398754E-002	1.554470211887294E-004	3.0154785E-009
2	1	0	1	1.024997974106373E+002	2.4427319E-002	2.4406696E-002	1.784016645960706E-004	4.3541952E-009
2	1	0	1	1.030005973979860E+002	2.9435238E-002	2.9406514E-002	2.025735910109652E-004	5.9569834E-009
2	1	0	0	1.035011973853398E+002	3.4441225E-002	3.4407675E-002	2.264077199350295E-004	7.7901632E-009
2	1	0	1	1.040017973726935E+002	3.9447241E-002	3.9417639E-002	2.510223872222387E-004	9.8947099E-009
2	1	0	0	1.045023973600473E+002	4.4453233E-002	4.4411708E-002	2.753709421384762E-004	1.2229694E-008
2	1	0	1	1.050029973474011E+002	4.9459264E-002	4.9436916E-002	3.009640820670677E-004	1.4878736E-008
2	1	0	0	1.055035973347549E+002	5.4465234E-002	5.4435674E-002	3.272752099538903E-004	1.7815447E-008
2	1	0	1	1.060041973221087E+002	5.9471216E-002	5.9441328E-002	3.518969096876316E-004	2.0917220E-008
2	1	0	0	1.065047973094624E+002	6.4477213E-002	6.4460725E-002	3.779784615995824E-004	2.4364766E-008
2	1	0	1	1.070054972968137E+002	6.9484212E-002	6.9466695E-002	4.071722539127150E-004	2.8284910E-008
2	1	0	1	1.075061972841650E+002	7.4491143E-002	7.4454188E-002	4.355394873931510E-004	3.2427739E-008
2	1	0	0	1.080067972715187E+002	7.9497166E-002	7.9482757E-002	4.657428049790306E-004	3.7018523E-008
2	1	0	1	1.085073972588725E+002	8.4503159E-002	8.4485225E-002	4.980159284005727E-004	4.2074987E-008
2	1	0	0	1.090079972462263E+002	8.9509174E-002	8.9479342E-002	5.306653866428458E-004	4.7483589E-008
2	1	0	1	1.095085972335801E+002	9.4515137E-002	9.4492100E-002	5.605869324767018E-004	5.2971036E-008
2	1	0	0	1.099065972235258E+002	9.8495215E-002	9.8488763E-002	5.893210620775023E-004	5.8041504E-008
2	1	0	0	1.100545972197870E+002	9.9997252E-002	9.9994197E-002	6.033525818825818E-004	6.0331757E-008