EC-Lab ASCII FILE
Nb header lines : 55                          

I-V Characterization

Run on channel : 1 (SN 6514)
User : 
CE vs. WE compliance from -10 V to 10 V
Electrode connection : standard
Ewe ctrl range : min = -1.10 V, max = 0.20 V
Safety Limits :
	Do not start on E overload
Acquisition started on : 06/15/2016 18:23:54
Saved on :
	File : B125-G54-UN-G-D1GB-C8 FW 10mVs_C01.mpr
	Directory : E:\EC-Lab measurements\B125-G54-UN-G-D1GB\
	Host : 10.0.2.15
Device : VSP (SN 0295)
Address : USB
EC-Lab for windows v11.01 (software)
Internet server v11.00 (firmware)
Command interpretor v11.00 (firmware)
Electrode material : 
Initial state : 
Electrolyte : 
Comments : 
Electrode surface area : 0.001 cm²
Characteristic mass : 0.001 g
Equivalent Weight : 0.000 g/eq.
Density : 0.000 g/cm3
tR (h:m:s)          0:00:0.0000         
dER/dt (mV/h)       0.0                 
dER (mV)            0                   
dtR (s)             0.0000              
dE/dt               10.000              
dE/dt unit          mV/s                
Ei (V)              0.100               
vs.                 Ref                 
EL (V)              -1.000              
vs.                 Ref                 
record              <I>                 
dI                  0.000               
unit dI             µA                  
tI (s)              0.1000              
step percent        100                 
N                   100                 
E range min (V)     -1.100              
E range max (V)     0.200               
I Range             Auto                
I Range min         Unset               
I Range max         Unset               
I Range init        Unset               
Bandwidth           5                   

mode	ox/red	error	control changes	time/s	control/V	Ewe/V	<I>/mA	P/W
2	0	0	0	1.449999963369919E-001	9.9096134E-002	9.9020191E-002	1.107320165634155E+000	1.0964705E-004
2	0	0	1	3.977999899507267E-001	9.6567996E-002	9.6501485E-002	1.109244179015338E+000	1.0704371E-004
2	0	0	0	8.983999773045070E-001	9.1562025E-002	9.1475464E-002	1.094227141179132E+000	1.0009493E-004
2	0	0	1	1.398999964658287E+000	8.6556040E-002	8.6465709E-002	1.069390853345617E+000	9.2465642E-005
2	0	0	0	1.899699952009541E+000	8.1549041E-002	8.1476808E-002	1.048426866304835E+000	8.5422471E-005
2	0	0	0	2.400399939360796E+000	7.6542102E-002	7.6479584E-002	1.033179339717563E+000	7.9017125E-005
2	0	0	1	2.900999926714576E+000	7.1536116E-002	7.1458332E-002	1.019715209760097E+000	7.2867151E-005
2	0	0	0	3.401599914068356E+000	6.6530131E-002	6.6456474E-002	1.011350002400956E+000	6.7210756E-005
2	0	0	1	3.902199901422136E+000	6.1524101E-002	6.1444398E-002	1.007233504084466E+000	6.1888859E-005
2	0	0	0	4.402799888775917E+000	5.6518085E-002	5.6455903E-002	1.004710343791281E+000	5.6721830E-005
2	0	0	1	4.903399876129697E+000	5.1512111E-002	5.1433958E-002	1.000289460435370E+000	5.1448846E-005
2	0	0	0	5.403999863483477E+000	4.6506125E-002	4.6426266E-002	9.964174758073252E-001	4.6259942E-005
2	0	0	1	5.904599850837258E+000	4.1500106E-002	4.1414618E-002	9.895095873070199E-001	4.0980161E-005
2	0	0	0	6.405299838188512E+000	3.6493141E-002	3.6418803E-002	9.858825438504955E-001	3.5904661E-005
2	0	0	0	6.905999825539766E+000	3.1486209E-002	3.1405166E-002	9.852208028044007E-001	3.0941024E-005
2	0	0	1	7.406599812893546E+000	2.6480207E-002	2.6400136E-002	9.819464644064149E-001	2.5923520E-005
2	0	0	0	7.907199800247326E+000	2.1474186E-002	2.1396941E-002	9.768128388313152E-001	2.0900807E-005
2	0	0	1	8.407799787601107E+000	1.6468218E-002	1.6383441E-002	9.734553521168188E-001	1.5948548E-005
2	0	0	0	8.908399774954887E+000	1.1462180E-002	1.1378087E-002	9.738658404826239E-001	1.1080730E-005
2	0	0	1	9.408999762308667E+000	6.4562061E-003	6.3585159E-003	9.706304854833903E-001	6.1717692E-006
2	0	0	0	9.909599749662448E+000	1.4497692E-003	1.3632145E-003	9.654571815188895E-001	1.3161252E-006
2	0	0	1	1.041019973701623E+001	-3.5557766E-003	-3.6526760E-003	9.624933310356845E-001	3.5156763E-006
2	0	0	0	1.091089972436748E+001	-8.5627632E-003	-8.6635118E-003	9.634362098202303E-001	8.3467412E-006
2	0	0	0	1.141159971171874E+001	-1.3569770E-002	-1.3651167E-002	9.618088967125331E-001	1.3129814E-005
2	0	0	1	1.191219969907252E+001	-1.8575810E-002	-1.8643916E-002	9.567109408079979E-001	1.7836837E-005
2	0	0	0	1.241279968642630E+001	-2.3581808E-002	-2.3648843E-002	9.532874754269831E-001	2.2544145E-005
2	0	0	1	1.291339967378008E+001	-2.8587800E-002	-2.8660381E-002	9.533983747528225E-001	2.7324761E-005
2	0	0	0	1.341399966113386E+001	-3.3593837E-002	-3.3672400E-002	9.482571130369628E-001	3.1930093E-005
2	0	0	1	1.391459964848764E+001	-3.8599845E-002	-3.8678139E-002	9.476185888038273E-001	3.6652124E-005
2	0	0	0	1.441519963584142E+001	-4.3605853E-002	-4.3684196E-002	9.470479113997818E-001	4.1371026E-005
2	0	0	1	1.491579962319520E+001	-4.8611853E-002	-4.8688412E-002	9.424882938022865E-001	4.5888257E-005
2	0	0	1	1.541659961054393E+001	-5.3619850E-002	-5.3694088E-002	9.403893940263326E-001	5.0493352E-005
2	0	0	0	1.591719959789771E+001	-5.8625840E-002	-5.8681432E-002	9.375263344622171E-001	5.5015389E-005
2	0	0	1	1.641779958525149E+001	-6.3631840E-002	-6.3709080E-002	9.355860317596971E-001	5.9605325E-005
2	0	0	0	1.691839957260527E+001	-6.8637885E-002	-6.8720832E-002	9.362641895658523E-001	6.4340857E-005
2	0	0	1	1.741899955995905E+001	-7.3643900E-002	-7.3711440E-002	9.337595794048701E-001	6.8828762E-005
2	0	0	0	1.791959954731283E+001	-7.8649938E-002	-7.8718089E-002	9.293238256133485E-001	7.3154595E-005
2	0	0	1	1.842019953466661E+001	-8.3655953E-002	-8.3724648E-002	9.277227991058048E-001	7.7673263E-005
2	0	0	0	1.892079952202039E+001	-8.8661961E-002	-8.8739358E-002	9.254698043369816E-001	8.2125596E-005
2	0	0	1	1.942149950937164E+001	-9.3668915E-002	-9.3734935E-002	9.234723104802178E-001	8.6561617E-005
2	0	0	1	1.992219949672290E+001	-9.8675951E-002	-9.8741740E-002	9.198901018403469E-001	9.0831549E-005
2	0	0	0	2.042279948407668E+001	-1.0368194E-001	-1.0376000E-001	9.168049193402927E-001	9.5127682E-005
2	0	0	1	2.092339947143046E+001	-1.0868797E-001	-1.0875303E-001	9.153274625503336E-001	9.9544639E-005
2	0	0	0	2.142399945878424E+001	-1.1369399E-001	-1.1376107E-001	9.140367549707977E-001	1.0398179E-004
2	0	0	1	2.192459944613802E+001	-1.1869998E-001	-1.1876951E-001	9.122761311595848E-001	1.0835059E-004
2	0	0	0	2.242519943349180E+001	-1.2370600E-001	-1.2377664E-001	9.066981539660377E-001	1.1222805E-004
2	0	0	1	2.292579942084558E+001	-1.2871203E-001	-1.2879215E-001	9.057209051971213E-001	1.1664975E-004
2	0	0	0	2.342639940819936E+001	-1.3371804E-001	-1.3378794E-001	9.038160151304151E-001	1.2091969E-004
2	0	0	1	2.392709939555061E+001	-1.3872500E-001	-1.3879842E-001	8.996494398637555E-001	1.2486991E-004
2	0	0	1	2.442779938290187E+001	-1.4373203E-001	-1.4382455E-001	8.982737684583639E-001	1.2919382E-004
2	0	0	0	2.492839937025565E+001	-1.4873804E-001	-1.4881748E-001	8.955257880102554E-001	1.3326989E-004
2	0	0	1	2.542899935760943E+001	-1.5374410E-001	-1.5383309E-001	8.935082466693069E-001	1.3745113E-004
2	0	0	0	2.592959934496321E+001	-1.5875009E-001	-1.5883489E-001	8.910684868342518E-001	1.4153277E-004
2	0	0	1	2.643019933231699E+001	-1.6375609E-001	-1.6385174E-001	8.865249625350407E-001	1.4525866E-004
2	0	0	0	2.693079931967077E+001	-1.6876210E-001	-1.6886219E-001	8.854151209347911E-001	1.4951314E-004
2	0	0	1	2.743139930702455E+001	-1.7376815E-001	-1.7386539E-001	8.833969695922503E-001	1.5359216E-004
2	0	0	0	2.793199929437833E+001	-1.7877416E-001	-1.7887726E-001	8.803281006521644E-001	1.5747068E-004
2	0	0	1	2.843269928172958E+001	-1.8378113E-001	-1.8388703E-001	8.782569691630600E-001	1.6150007E-004
2	0	0	1	2.893339926908084E+001	-1.8878813E-001	-1.8889490E-001	8.753647470985086E-001	1.6535193E-004
2	0	0	0	2.943399925643462E+001	-1.9379413E-001	-1.9389153E-001	8.739201687822415E-001	1.6944572E-004
2	0	0	1	2.993459924378840E+001	-1.9880015E-001	-1.9890638E-001	8.704612003012748E-001	1.7314029E-004
2	0	0	0	3.043519923114218E+001	-2.0380621E-001	-2.0392166E-001	8.671754859429512E-001	1.7683586E-004
2	0	0	1	3.093579921849596E+001	-2.0881216E-001	-2.0892967E-001	8.624075608457438E-001	1.8018253E-004
2	0	0	0	3.143639920584974E+001	-2.1381824E-001	-2.1393992E-001	8.622951185663794E-001	1.8447934E-004
2	0	0	1	3.193699919320352E+001	-2.1882422E-001	-2.1894321E-001	8.615996354091182E-001	1.8864140E-004
2	0	0	0	3.243769918055477E+001	-2.2383118E-001	-2.2395463E-001	8.592245019452369E-001	1.9242731E-004
2	0	0	0	3.293839916790603E+001	-2.2883818E-001	-2.2895330E-001	8.539500794623800E-001	1.9551469E-004
2	0	0	1	3.343899915525981E+001	-2.3384421E-001	-2.3393777E-001	8.510383837390689E-001	1.9909002E-004
2	0	0	0	3.393959914261359E+001	-2.3885021E-001	-2.3896979E-001	8.486874509673807E-001	2.0281065E-004
2	0	0	1	3.444019912996737E+001	-2.4385624E-001	-2.4397810E-001	8.462589575299475E-001	2.0646866E-004
2	0	0	0	3.494079911732115E+001	-2.4886225E-001	-2.4895708E-001	8.429354215494254E-001	2.0985474E-004
2	0	0	1	3.544139910467493E+001	-2.5386825E-001	-2.5396499E-001	8.393804232347808E-001	2.1317325E-004
2	0	0	0	3.594199909202871E+001	-2.5887424E-001	-2.5897306E-001	8.372999909661347E-001	2.1683815E-004
2	0	0	1	3.644259907938249E+001	-2.6388031E-001	-2.6397496E-001	8.341582290115745E-001	2.2019689E-004
2	0	0	0	3.694329906673374E+001	-2.6888725E-001	-2.6898110E-001	8.286182596053280E-001	2.2288265E-004
2	0	0	0	3.744399905408500E+001	-2.7389428E-001	-2.7397236E-001	8.262064296536611E-001	2.2635773E-004
2	0	0	1	3.794459904143878E+001	-2.7890033E-001	-2.7897131E-001	8.229078286667058E-001	2.2956768E-004
2	0	0	0	3.844519902879256E+001	-2.8390631E-001	-2.8400105E-001	8.172731902852579E-001	2.3210645E-004
2	0	0	1	3.894579901614634E+001	-2.8891230E-001	-2.8899518E-001	8.151885794522080E-001	2.3558557E-004
2	0	0	0	3.944639900350012E+001	-2.9391834E-001	-2.9399580E-001	8.117374363581877E-001	2.3864739E-004
2	0	0	1	3.994699899085390E+001	-2.9892442E-001	-2.9902047E-001	8.085763450418513E-001	2.4178087E-004
2	0	0	0	4.044759897820768E+001	-3.0393046E-001	-3.0402306E-001	8.023758528329970E-001	2.4394075E-004
2	0	0	1	4.094819896556146E+001	-3.0893651E-001	-3.0904090E-001	8.000254423525526E-001	2.4724059E-004
2	0	0	0	4.144889895291271E+001	-3.1394339E-001	-3.1404945E-001	7.943299395331366E-001	2.4945888E-004
2	0	0	0	4.194959894026397E+001	-3.1895047E-001	-3.1904343E-001	7.919670484007231E-001	2.5267189E-004
2	0	0	1	4.245019892761775E+001	-3.2395646E-001	-3.2405531E-001	7.861737275109295E-001	2.5476379E-004
2	0	0	0	4.295079891497153E+001	-3.2896248E-001	-3.2903680E-001	7.828806030195576E-001	2.5759652E-004
2	0	0	1	4.345139890232531E+001	-3.3396849E-001	-3.3404240E-001	7.786652254857778E-001	2.6010719E-004
2	0	0	0	4.395199888967909E+001	-3.3897448E-001	-3.3904645E-001	7.726687319494472E-001	2.6197059E-004
2	0	0	1	4.445259887703287E+001	-3.4398049E-001	-3.4407106E-001	7.680065111022252E-001	2.6424881E-004
2	0	0	0	4.495319886438665E+001	-3.4898654E-001	-3.4908688E-001	7.636144981597770E-001	2.6656780E-004
2	0	0	1	4.545379885174043E+001	-3.5399249E-001	-3.5408312E-001	7.582898917860259E-001	2.6849765E-004
2	0	0	1	4.595459883908916E+001	-3.5900047E-001	-3.5910714E-001	7.516408311905796E-001	2.6991958E-004
2	0	0	0	4.645519882644294E+001	-3.6400646E-001	-3.6410227E-001	7.475304421038498E-001	2.7217754E-004
2	0	0	1	4.695579881379672E+001	-3.6901248E-001	-3.6910656E-001	7.440097044587262E-001	2.7461885E-004
2	0	0	0	4.745639880115050E+001	-3.7401849E-001	-3.7411788E-001	7.377429019885760E-001	2.7600280E-004
2	0	0	1	4.795699878850428E+001	-3.7902457E-001	-3.7912670E-001	7.302533046858066E-001	2.7685851E-004
2	0	0	0	4.845759877585806E+001	-3.8403058E-001	-3.8413030E-001	7.255919177501049E-001	2.7872185E-004
2	0	0	1	4.895819876321184E+001	-3.8903660E-001	-3.8912216E-001	7.192828074006219E-001	2.7988889E-004
2	0	0	0	4.945879875056562E+001	-3.9404267E-001	-3.9413139E-001	7.135971749043364E-001	2.8125104E-004
2	0	0	1	4.995949873791687E+001	-3.9904964E-001	-3.9914340E-001	7.073774961275119E-001	2.8234505E-004
2	0	0	1	5.046019872526813E+001	-4.0405661E-001	-4.0415451E-001	7.008650712552029E-001	2.8325777E-004
2	0	0	0	5.096079871262191E+001	-4.0906262E-001	-4.0914130E-001	6.956411200772976E-001	2.8461553E-004
2	0	0	1	5.146139869997569E+001	-4.1406861E-001	-4.1414565E-001	6.885767706493020E-001	2.8517106E-004
2	0	0	0	5.196199868732947E+001	-4.1907459E-001	-4.1916341E-001	6.805333169498535E-001	2.8525467E-004
2	0	0	1	5.246259867468325E+001	-4.2408061E-001	-4.2416760E-001	6.739359614233038E-001	2.8586181E-004
2	0	0	0	5.296319866203703E+001	-4.2908666E-001	-4.2917368E-001	6.665498082372756E-001	2.8606562E-004
2	0	0	1	5.346379864939081E+001	-4.3409261E-001	-4.3417227E-001	6.587656182990553E-001	2.8601778E-004
2	0	0	0	5.396439863674459E+001	-4.3909863E-001	-4.3919206E-001	6.509161105424157E-001	2.8587718E-004
2	0	0	1	5.446509862409584E+001	-4.4410557E-001	-4.4419402E-001	6.434721005796167E-001	2.8582645E-004
2	0	0	1	5.496579861144710E+001	-4.4911259E-001	-4.4918987E-001	6.354076393995856E-001	2.8541868E-004
2	0	0	0	5.546639859880088E+001	-4.5411861E-001	-4.5421335E-001	6.264519701417732E-001	2.8454285E-004
2	0	0	1	5.596699858615466E+001	-4.5912462E-001	-4.5921367E-001	6.185611818353145E-001	2.8405176E-004
2	0	0	0	5.646759857350844E+001	-4.6413067E-001	-4.6422526E-001	6.104314235819368E-001	2.8337768E-004
2	0	0	1	5.696819856086222E+001	-4.6913669E-001	-4.6922791E-001	6.023017128473520E-001	2.8261676E-004
2	0	0	0	5.746879854821600E+001	-4.7414276E-001	-4.7423732E-001	5.927402725399631E-001	2.8109955E-004
2	0	0	1	5.796939853556978E+001	-4.7914875E-001	-4.7924364E-001	5.846290948226187E-001	2.8017978E-004
2	0	0	0	5.846999852292356E+001	-4.8415473E-001	-4.8426959E-001	5.755091788787130E-001	2.7870160E-004
2	0	0	1	5.897069851027481E+001	-4.8916173E-001	-4.8926428E-001	5.648914775150384E-001	2.7638121E-004
2	0	0	1	5.947139849762607E+001	-4.9416873E-001	-4.9428463E-001	5.559538934077679E-001	2.7479947E-004
2	0	0	0	5.997199848497985E+001	-4.9917471E-001	-4.9928448E-001	5.468362043904071E-001	2.7302682E-004
2	0	0	1	6.047259847233363E+001	-5.0418067E-001	-5.0430900E-001	5.368635469062237E-001	2.7074511E-004
2	0	0	0	6.097319845968741E+001	-5.0918669E-001	-5.0930017E-001	5.254138148327165E-001	2.6759334E-004
2	0	0	1	6.147379844704119E+001	-5.1419276E-001	-5.1430970E-001	5.139926066648934E-001	2.6435137E-004
2	0	0	0	6.197439843439497E+001	-5.1919878E-001	-5.1931834E-001	5.051194858013552E-001	2.6231780E-004
2	0	0	1	6.247499842174875E+001	-5.2420479E-001	-5.2432156E-001	4.945929523730026E-001	2.5932575E-004
2	0	0	0	6.299319840865792E+001	-5.2938688E-001	-5.2947313E-001	4.837371708772358E-001	2.5612584E-004
2	0	0	1	6.351139839556708E+001	-5.3456885E-001	-5.3463012E-001	4.729193603544886E-001	2.5283694E-004
2	0	0	0	6.401199838292087E+001	-5.3957480E-001	-5.3964758E-001	4.619989587715354E-001	2.4931662E-004
2	0	0	1	6.451259837027465E+001	-5.4458082E-001	-5.4464126E-001	4.511712854715362E-001	2.4572649E-004
2	0	0	0	6.501319835762843E+001	-5.4958677E-001	-5.4965365E-001	4.406657099209275E-001	2.4221351E-004
2	0	0	1	6.551379834498221E+001	-5.5459285E-001	-5.5467469E-001	4.282420922037873E-001	2.3753505E-004
2	0	0	0	6.601439833233599E+001	-5.5959892E-001	-5.5967683E-001	4.172782567540905E-001	2.3354097E-004
2	0	0	1	6.651509831968724E+001	-5.6460589E-001	-5.6465989E-001	4.059841262337160E-001	2.2924296E-004
2	0	0	1	6.701579830703849E+001	-5.6961292E-001	-5.6967092E-001	3.936341502520184E-001	2.2424193E-004
2	0	0	0	6.751639829439227E+001	-5.7461900E-001	-5.7469052E-001	3.819470648132799E-001	2.1950135E-004
2	0	0	1	6.801699828174606E+001	-5.7962507E-001	-5.7968384E-001	3.712227290230059E-001	2.1519182E-004
2	0	0	0	6.851759826909984E+001	-5.8463097E-001	-5.8469421E-001	3.589671309726370E-001	2.0988600E-004
2	0	0	1	6.901819825645362E+001	-5.8963698E-001	-5.8969164E-001	3.466532164905058E-001	2.0441851E-004
2	0	0	0	6.951879824380740E+001	-5.9464300E-001	-5.9470588E-001	3.354334721441434E-001	1.9948426E-004
2	0	0	1	7.001939823116118E+001	-5.9964907E-001	-5.9971201E-001	3.234469709805783E-001	1.9397504E-004
2	0	0	0	7.051999821851496E+001	-6.0465491E-001	-6.0472244E-001	3.106667406719819E-001	1.8786715E-004
2	0	0	1	7.102069820586621E+001	-6.0966206E-001	-6.0973805E-001	2.983829976470668E-001	1.8193547E-004
2	0	0	1	7.152139819321746E+001	-6.1466902E-001	-6.1474359E-001	2.867248948043374E-001	1.7626229E-004
2	0	0	0	7.202199818057125E+001	-6.1967510E-001	-6.1975348E-001	2.743572713651847E-001	1.7003388E-004
2	0	0	1	7.252259816792503E+001	-6.2468094E-001	-6.2474871E-001	2.616662574997006E-001	1.6347566E-004
2	0	0	0	7.302319815527881E+001	-6.2968713E-001	-6.2976402E-001	2.487042172713325E-001	1.5662497E-004
2	0	0	1	7.352379814263259E+001	-6.3469303E-001	-6.3477039E-001	2.370660004980106E-001	1.5048248E-004
2	0	0	0	7.402439812998637E+001	-6.3969916E-001	-6.3975406E-001	2.248924573659656E-001	1.4387586E-004
2	0	0	1	7.452499811734015E+001	-6.4470506E-001	-6.4475679E-001	2.122249719435250E-001	1.3683349E-004
2	0	0	0	7.502559810469393E+001	-6.4971119E-001	-6.4977092E-001	1.992963382852389E-001	1.2949697E-004
2	0	0	1	7.552629809204518E+001	-6.5471822E-001	-6.5476000E-001	1.868702917467672E-001	1.2235520E-004
2	0	0	1	7.602699807939644E+001	-6.5972525E-001	-6.5976620E-001	1.748031231178351E-001	1.1532919E-004
2	0	0	0	7.652759806675022E+001	-6.6473126E-001	-6.6475123E-001	1.618212663735736E-001	1.0757089E-004
2	0	0	1	7.702819805410400E+001	-6.6973722E-001	-6.6978192E-001	1.495553299301018E-001	1.0016945E-004
2	0	0	0	7.752879804145778E+001	-6.7474329E-001	-6.7480195E-001	1.367612374632237E-001	9.2286748E-005
2	0	0	1	7.802939802881156E+001	-6.7974907E-001	-6.7978460E-001	1.240500112016130E-001	8.4327286E-005
2	0	0	0	7.852999801616534E+001	-6.8475527E-001	-6.8478578E-001	1.115721553074774E-001	7.6403026E-005
2	0	0	1	7.903059800351912E+001	-6.8976116E-001	-6.8979031E-001	9.863273566552522E-002	6.8035908E-005
2	0	0	0	7.953119799087290E+001	-6.9476730E-001	-6.9479966E-001	8.603453211781620E-002	5.9776765E-005
2	0	0	0	8.003199797822163E+001	-6.9977516E-001	-6.9980627E-001	7.366432778839682E-002	5.1550760E-005
2	0	0	1	8.053259796557541E+001	-7.0478129E-001	-7.0481008E-001	6.079951899159430E-002	4.2852113E-005
2	0	0	0	8.104819795255025E+001	-7.0993710E-001	-7.0998222E-001	4.753330408232431E-002	3.3747801E-005
2	0	0	1	8.156379793952510E+001	-7.1509326E-001	-7.1514088E-001	3.460550399565204E-002	2.4747811E-005
2	0	0	0	8.206439792687888E+001	-7.2009909E-001	-7.2012538E-001	2.197521251326934E-002	1.5824908E-005
2	0	0	1	8.258259791378805E+001	-7.2528136E-001	-7.2529548E-001	9.053922151220500E-003	6.5667687E-006
2	0	0	0	8.311829790025513E+001	-7.3063803E-001	-7.3067260E-001	-4.625355989286470E-003	3.3796209E-006
2	0	0	0	8.363639788716682E+001	-7.3581940E-001	-7.3583537E-001	-1.751742254057964E-002	1.2889939E-005
2	0	0	1	8.413699787452060E+001	-7.4082524E-001	-7.4083811E-001	-3.015171272326239E-002	2.2337537E-005
2	0	0	0	8.463759786187438E+001	-7.4583143E-001	-7.4586344E-001	-4.249032640484268E-002	3.1691980E-005
2	0	0	1	8.513819784922816E+001	-7.5083739E-001	-7.5087970E-001	-5.481702541818589E-002	4.1160991E-005
2	0	0	0	8.563879783658194E+001	-7.5584340E-001	-7.5587702E-001	-6.744499516083922E-002	5.0980121E-005
2	0	0	0	8.613959782393067E+001	-7.6085150E-001	-7.6089585E-001	-7.987547389785110E-002	6.0776918E-005
2	0	0	1	8.664019781128445E+001	-7.6585734E-001	-7.6591158E-001	-9.240243402921700E-002	7.0772097E-005
2	0	0	0	8.715829779819614E+001	-7.7103853E-001	-7.7108222E-001	-1.049513863031317E-001	8.0926147E-005
2	0	0	0	8.767639778510784E+001	-7.7621931E-001	-7.7626598E-001	-1.178908941134992E-001	9.1514688E-005
2	0	0	1	8.817699777246162E+001	-7.8122550E-001	-7.8126240E-001	-1.299911857290299E-001	1.0155723E-004
2	0	0	0	8.867759775981540E+001	-7.8623134E-001	-7.8629011E-001	-1.421368202652840E-001	1.1176078E-004
2	0	0	1	8.917829774716665E+001	-7.9123843E-001	-7.9129940E-001	-1.545326806639813E-001	1.2228162E-004
2	0	0	1	8.967899773451791E+001	-7.9624522E-001	-7.9631680E-001	-1.663933647415283E-001	1.3250184E-004
2	0	0	0	9.017959772187169E+001	-8.0125141E-001	-8.0130434E-001	-1.784160893050386E-001	1.4296558E-004
2	0	0	1	9.068019770922547E+001	-8.0625731E-001	-8.0631506E-001	-1.906068338835073E-001	1.5368917E-004
2	0	0	0	9.118079769657925E+001	-8.1126350E-001	-8.1132376E-001	-2.028691048840396E-001	1.6459252E-004
2	0	0	1	9.168139768393303E+001	-8.1626934E-001	-8.1633240E-001	-2.147712339072534E-001	1.7532472E-004
2	0	0	0	9.218199767128681E+001	-8.2127553E-001	-8.2134324E-001	-2.260756413329328E-001	1.8568570E-004
2	0	0	1	9.268259765864059E+001	-8.2628131E-001	-8.2634813E-001	-2.378726899746448E-001	1.9656566E-004
2	0	0	0	9.318319764599437E+001	-8.3128756E-001	-8.3136451E-001	-2.497321305481295E-001	2.0761843E-004
2	0	0	1	9.368389763334562E+001	-8.3629441E-001	-8.3636457E-001	-2.607755409601586E-001	2.1810342E-004
2	0	0	1	9.418459762069688E+001	-8.4130156E-001	-8.4135002E-001	-2.719315239848097E-001	2.2878959E-004
2	0	0	0	9.468519760805066E+001	-8.4630758E-001	-8.4637874E-001	-2.837412113224720E-001	2.4015253E-004
2	0	0	1	9.518579759540444E+001	-8.5131347E-001	-8.5138929E-001	-2.958020734777094E-001	2.5184272E-004
2	0	0	0	9.568639758275822E+001	-8.5631967E-001	-8.5639405E-001	-3.068479290948578E-001	2.6278273E-004
2	0	0	1	9.618699757011200E+001	-8.6132544E-001	-8.6139733E-001	-3.175920123316249E-001	2.7357292E-004
2	0	0	0	9.668759755746578E+001	-8.6633170E-001	-8.6641425E-001	-3.280439668055274E-001	2.8422195E-004
2	0	0	1	9.718819754481956E+001	-8.7133741E-001	-8.7141347E-001	-3.395182995383381E-001	2.9586081E-004
2	0	0	0	9.768879753217334E+001	-8.7634367E-001	-8.7638998E-001	-3.504961981046182E-001	3.0717134E-004
2	0	0	1	9.818949751952459E+001	-8.8135046E-001	-8.8138747E-001	-3.613110653061939E-001	3.1845504E-004
2	0	0	1	9.869019750687585E+001	-8.8635761E-001	-8.8641661E-001	-3.718328528733159E-001	3.2959881E-004
2	0	0	0	9.919079749422963E+001	-8.9136338E-001	-8.9142400E-001	-3.830474131125898E-001	3.4145766E-004
2	0	0	1	9.969139748158341E+001	-8.9636976E-001	-8.9641494E-001	-3.939472419448027E-001	3.5314020E-004
2	0	0	0	1.001919974689372E+002	-9.0137541E-001	-9.0141892E-001	-4.038768515969497E-001	3.6406223E-004
2	0	0	1	1.006925974562910E+002	-9.0638167E-001	-9.0644038E-001	-4.143243619145389E-001	3.7556034E-004
2	0	0	0	1.011931974436447E+002	-9.1138744E-001	-9.1145366E-001	-4.243320591459097E-001	3.8675900E-004
2	0	0	1	1.016937974309985E+002	-9.1639370E-001	-9.1644150E-001	-4.356882274894281E-001	3.9928278E-004
2	0	0	0	1.021943974183523E+002	-9.2139965E-001	-9.2143947E-001	-4.462802638568859E-001	4.1122024E-004
2	0	0	0	1.026951974057010E+002	-9.2640758E-001	-9.2646438E-001	-4.563352228181818E-001	4.2277834E-004
2	0	0	1	1.031957973930548E+002	-9.3141365E-001	-9.3148237E-001	-4.662565716032994E-001	4.3430977E-004
2	0	0	0	1.036963973804086E+002	-9.3641967E-001	-9.3647945E-001	-4.754856513156589E-001	4.4528255E-004
2	0	0	1	1.041969973677624E+002	-9.4142580E-001	-9.4148421E-001	-4.861717747622523E-001	4.5772304E-004
2	0	0	0	1.046975973551162E+002	-9.4643152E-001	-9.4649321E-001	-4.950128451713187E-001	4.6852630E-004
2	0	0	1	1.051981973424699E+002	-9.5143783E-001	-9.5147371E-001	-5.046410093009399E-001	4.8015267E-004
2	0	0	0	1.056987973298237E+002	-9.5644349E-001	-9.5646101E-001	-5.153371352191147E-001	4.9289985E-004
2	0	0	1	1.061993973171775E+002	-9.6144974E-001	-9.6148926E-001	-5.258488634313445E-001	5.0559803E-004
2	0	0	0	1.067000973045288E+002	-9.6645635E-001	-9.6649331E-001	-5.346094814470366E-001	5.1669648E-004
2	0	0	0	1.072007972918800E+002	-9.7146380E-001	-9.7151804E-001	-5.435673410581963E-001	5.2808545E-004
2	0	0	1	1.077013972792338E+002	-9.7646952E-001	-9.7651494E-001	-5.541539575892749E-001	5.4113963E-004
2	0	0	0	1.082019972665876E+002	-9.8147571E-001	-9.8153228E-001	-5.642679861826680E-001	5.5384723E-004
2	0	0	1	1.087025972539413E+002	-9.8648143E-001	-9.8653561E-001	-5.730236314349186E-001	5.6530820E-004
2	0	0	0	1.092031972412951E+002	-9.9148774E-001	-9.9153203E-001	-5.817448625451869E-001	5.7681865E-004
2	0	0	1	1.097037972286489E+002	-9.9649358E-001	-9.9652141E-001	-5.919084579949887E-001	5.8984943E-004
2	0	0	0	1.100041972210602E+002	-9.9949604E-001	-9.9952954E-001	-5.966904295116073E-001	5.9640972E-004
2	0	0	0	1.100521972198476E+002	-1.0000215E+000	-1.0000570E+000	-5.980969369411469E-001	5.9813104E-004