EC-Lab ASCII FILE
Nb header lines : 55                          

I-V Characterization

Run on channel : 1 (SN 6514)
User : 
CE vs. WE compliance from -10 V to 10 V
Electrode connection : standard
Ewe ctrl range : min = -1.10 V, max = 0.20 V
Safety Limits :
	Do not start on E overload
Acquisition started on : 06/15/2016 19:17:30
Saved on :
	File : B125-G54-UN-G-D1GB-C15 BW 100mVs dark_C01.mpr
	Directory : E:\EC-Lab measurements\B125-G54-UN-G-D1GB\
	Host : 10.0.2.15
Device : VSP (SN 0295)
Address : USB
EC-Lab for windows v11.01 (software)
Internet server v11.00 (firmware)
Command interpretor v11.00 (firmware)
Electrode material : 
Initial state : 
Electrolyte : 
Comments : 
Electrode surface area : 0.001 cm²
Characteristic mass : 0.001 g
Equivalent Weight : 0.000 g/eq.
Density : 0.000 g/cm3
tR (h:m:s)          0:00:0.0000         
dER/dt (mV/h)       0.0                 
dER (mV)            0                   
dtR (s)             0.0000              
dE/dt               100.000             
dE/dt unit          mV/s                
Ei (V)              -1.000              
vs.                 Ref                 
EL (V)              0.100               
vs.                 Ref                 
record              <I>                 
dI                  0.000               
unit dI             µA                  
tI (s)              0.1000              
step percent        100                 
N                   100                 
E range min (V)     -1.100              
E range max (V)     0.200               
I Range             Auto                
I Range min         Unset               
I Range max         Unset               
I Range init        Unset               
Bandwidth           5                   

mode	ox/red	error	control changes	time/s	control/V	Ewe/V	<I>/mA	P/W
2	1	0	1	1.103999972110614E-001	-9.9401397E-001	-9.9411750E-001	-2.352469041943550E-001	2.3386306E-004
2	1	0	0	1.357999965694034E-001	-9.9148411E-001	-9.9151558E-001	-2.382788062416376E-001	2.3625715E-004
2	1	0	0	1.857999953062972E-001	-9.8648173E-001	-9.8651922E-001	-2.417644922474742E-001	2.3850532E-004
2	1	0	1	2.358999940406648E-001	-9.8147583E-001	-9.8151648E-001	-2.431904426002895E-001	2.3869543E-004
2	1	0	1	2.859999927750323E-001	-9.7646338E-001	-9.7649729E-001	-2.435573859949063E-001	2.3783313E-004
2	1	0	1	3.359999915119261E-001	-9.7146332E-001	-9.7149390E-001	-2.427661797345144E-001	2.3584586E-004
2	1	0	1	3.859999902488198E-001	-9.6646512E-001	-9.6649647E-001	-2.413979394729662E-001	2.3331026E-004
2	1	0	0	4.361999889806611E-001	-9.6144265E-001	-9.6146506E-001	-2.396872792714022E-001	2.3045094E-004
2	1	0	0	4.861999877175549E-001	-9.5644403E-001	-9.5645946E-001	-2.375880394400651E-001	2.2724333E-004
2	1	0	0	5.361999864544487E-001	-9.5144433E-001	-9.5147115E-001	-2.349274379609758E-001	2.2352667E-004
2	1	0	1	5.862999851888162E-001	-9.4643182E-001	-9.4648957E-001	-2.321836862893125E-001	2.1975944E-004
2	1	0	1	6.363999839231838E-001	-9.4142586E-001	-9.4146973E-001	-2.291333150949111E-001	2.1572207E-004
2	1	0	1	6.863999826600775E-001	-9.3642360E-001	-9.3645853E-001	-2.258270378650896E-001	2.1147766E-004
2	1	0	0	7.364999813944451E-001	-9.3141323E-001	-9.3145138E-001	-2.222803247380505E-001	2.0704331E-004
2	1	0	0	7.865999801288126E-001	-9.2640460E-001	-9.2644423E-001	-2.185124054241112E-001	2.0243955E-004
2	1	0	0	8.365999788657064E-001	-9.2140245E-001	-9.2144173E-001	-2.145559496481095E-001	1.9770081E-004
2	1	0	1	8.866999776000739E-001	-9.1639447E-001	-9.1641521E-001	-2.106317744491956E-001	1.9302616E-004
2	1	0	1	9.367999763344415E-001	-9.1138405E-001	-9.1142470E-001	-2.065534771406570E-001	1.8825794E-004
2	1	0	1	9.867999750713352E-001	-9.0638232E-001	-9.0642059E-001	-2.024855787622619E-001	1.8353709E-004
2	1	0	1	1.036799973808229E+000	-9.0138543E-001	-9.0142643E-001	-1.983091831177484E-001	1.7876114E-004
2	1	0	0	1.086999972540070E+000	-8.9636302E-001	-8.9639151E-001	-1.941755971199539E-001	1.7405735E-004
2	1	0	0	1.136999971276964E+000	-8.9136302E-001	-8.9139360E-001	-1.898811484543979E-001	1.6925884E-004
2	1	0	0	1.186999970013858E+000	-8.8636494E-001	-8.8640177E-001	-1.857004801473412E-001	1.6460524E-004
2	1	0	1	1.237199968745699E+000	-8.8134217E-001	-8.8136619E-001	-1.814232644957789E-001	1.5990033E-004
2	1	0	1	1.287199967482593E+000	-8.7634486E-001	-8.7639916E-001	-1.772533467074475E-001	1.5534468E-004
2	1	0	1	1.337199966219487E+000	-8.7134379E-001	-8.7139916E-001	-1.728997048696546E-001	1.5066465E-004
2	1	0	0	1.387299964953854E+000	-8.6633211E-001	-8.6639762E-001	-1.686313357861664E-001	1.4610178E-004
2	1	0	0	1.437399963688222E+000	-8.6132509E-001	-8.6137486E-001	-1.643416466244105E-001	1.4155977E-004
2	1	0	0	1.487399962425116E+000	-8.5632306E-001	-8.5637736E-001	-1.601510281922236E-001	1.3714972E-004
2	1	0	1	1.537499961159483E+000	-8.5131323E-001	-8.5135710E-001	-1.560544848349981E-001	1.3285810E-004
2	1	0	1	1.587599959893851E+000	-8.4630477E-001	-8.4635305E-001	-1.520176245683450E-001	1.2866058E-004
2	1	0	1	1.637599958630744E+000	-8.4130228E-001	-8.4133756E-001	-1.479659809591130E-001	1.2448934E-004
2	1	0	0	1.687699957365112E+000	-8.3629465E-001	-8.3634263E-001	-1.439768503208401E-001	1.2041398E-004
2	1	0	0	1.737799956099479E+000	-8.3128345E-001	-8.3134568E-001	-1.400626937818288E-001	1.1644052E-004
2	1	0	0	1.787799954836373E+000	-8.2628196E-001	-8.2633561E-001	-1.361998133509565E-001	1.1254675E-004
2	1	0	0	1.837799953573267E+000	-8.2128513E-001	-8.2133818E-001	-1.324342223571890E-001	1.0877328E-004
2	1	0	1	1.887999952305108E+000	-8.1626278E-001	-8.1630939E-001	-1.287345881333238E-001	1.0508725E-004
2	1	0	1	1.937999951042002E+000	-8.1126356E-001	-8.1130868E-001	-1.252312963315272E-001	1.0160124E-004
2	1	0	1	1.987999949778896E+000	-8.0626434E-001	-8.0631602E-001	-1.215868637780011E-001	9.8037439E-005
2	1	0	0	2.038199948510737E+000	-8.0124211E-001	-8.0127823E-001	-1.183010825576087E-001	9.4792085E-005
2	1	0	0	2.088199947247631E+000	-7.9624444E-001	-7.9628181E-001	-1.149226369632181E-001	9.1510803E-005
2	1	0	0	2.138199945984525E+000	-7.9124361E-001	-7.9128414E-001	-1.114683333613069E-001	8.8203124E-005
2	1	0	1	2.188299944718892E+000	-7.8623211E-001	-7.8627771E-001	-1.082213161260325E-001	8.5092011E-005
2	1	0	1	2.238399943453260E+000	-7.8122526E-001	-7.8125733E-001	-1.051521119594718E-001	8.2150858E-005
2	1	0	1	2.288399942190154E+000	-7.7622271E-001	-7.7626014E-001	-1.020336358141626E-001	7.9204641E-005
2	1	0	0	2.338499940924521E+000	-7.7121341E-001	-7.7125758E-001	-9.899986867137400E-002	7.6354401E-005
2	1	0	0	2.388599939658889E+000	-7.6620382E-001	-7.6624149E-001	-9.621043171649246E-002	7.3720425E-005
2	1	0	0	2.438599938395782E+000	-7.6120192E-001	-7.6124412E-001	-9.331693183341794E-002	7.1036964E-005
2	1	0	1	2.488699937130150E+000	-7.5619459E-001	-7.5622708E-001	-9.048146441458282E-002	6.8424531E-005
2	1	0	1	2.538799935864517E+000	-7.5118327E-001	-7.5121123E-001	-8.774975165778587E-002	6.5918597E-005
2	1	0	1	2.588799934601411E+000	-7.4618256E-001	-7.4619800E-001	-8.512237249990395E-002	6.3518142E-005
2	1	0	1	2.638799933338305E+000	-7.4118471E-001	-7.4121064E-001	-8.261186312869118E-002	6.1232793E-005
2	1	0	0	2.688999932070146E+000	-7.3616242E-001	-7.3618388E-001	-8.003632318337361E-002	5.8921451E-005
2	1	0	0	2.738999930807040E+000	-7.3116344E-001	-7.3118424E-001	-7.758398177576165E-002	5.6728186E-005
2	1	0	0	2.788999929543934E+000	-7.2616386E-001	-7.2617960E-001	-7.515055881645671E-002	5.4572803E-005
2	1	0	1	2.839199928275775E+000	-7.2114128E-001	-7.2116458E-001	-7.271030600373374E-002	5.2436098E-005
2	1	0	1	2.889199927012669E+000	-7.1614516E-001	-7.1617240E-001	-7.045859878819929E-002	5.0460505E-005
2	1	0	1	2.939199925749563E+000	-7.1114302E-001	-7.1117622E-001	-6.826811467585681E-002	4.8550661E-005
2	1	0	0	2.989299924483930E+000	-7.0613241E-001	-7.0616794E-001	-6.606023710096187E-002	4.6649620E-005
2	1	0	0	3.039399923218298E+000	-7.0112443E-001	-7.0114905E-001	-6.395232524339844E-002	4.4840112E-005
2	1	0	0	3.089399921955192E+000	-6.9612193E-001	-6.9615644E-001	-6.193835056895036E-002	4.3118780E-005
2	1	0	1	3.139499920689559E+000	-6.9111335E-001	-6.9113719E-001	-5.994948540118128E-002	4.1433319E-005
2	1	0	1	3.189599919423927E+000	-6.8610388E-001	-6.8613666E-001	-5.794784565184530E-002	3.9760140E-005
2	1	0	1	3.239599918160820E+000	-6.8110144E-001	-6.8112069E-001	-5.607849325231171E-002	3.8196224E-005
2	1	0	0	3.289699916895188E+000	-6.7609483E-001	-6.7614001E-001	-5.426025441509486E-002	3.6687528E-005
2	1	0	0	3.339799915629555E+000	-6.7108285E-001	-6.7110974E-001	-5.242285558481874E-002	3.5181489E-005
2	1	0	0	3.389799914366449E+000	-6.6608232E-001	-6.6611075E-001	-5.067674676633005E-002	3.3756325E-005
2	1	0	0	3.439799913103343E+000	-6.6108394E-001	-6.6112310E-001	-4.898910331591766E-002	3.2387827E-005
2	1	0	1	3.489999911835184E+000	-6.5606189E-001	-6.5609759E-001	-4.739763162190902E-002	3.1097472E-005
2	1	0	1	3.555299910185568E+000	-6.4953160E-001	-6.4958704E-001	-4.522955339719148E-002	2.9380531E-005
2	1	0	0	3.620599908535951E+000	-6.4300364E-001	-6.4303458E-001	-4.321926064061289E-002	2.7791479E-005
2	1	0	0	3.670599907272845E+000	-6.3800335E-001	-6.3805962E-001	-4.173219598959085E-002	2.6627629E-005
2	1	0	1	3.720699906007212E+000	-6.3299114E-001	-6.3305575E-001	-4.030342931118658E-002	2.5514317E-005
2	1	0	1	3.770799904741580E+000	-6.2798458E-001	-6.2803763E-001	-3.889343994322580E-002	2.4426545E-005
2	1	0	1	3.820799903478473E+000	-6.2298232E-001	-6.2303460E-001	-3.751377676924700E-002	2.3372380E-005
2	1	0	0	3.870899902212841E+000	-6.1797249E-001	-6.1804259E-001	-3.617429392752630E-002	2.2357255E-005
2	1	0	0	3.920999900947209E+000	-6.1296415E-001	-6.1302078E-001	-3.490735932857192E-002	2.1398937E-005
2	1	0	0	3.970999899684102E+000	-6.0796189E-001	-6.0802424E-001	-3.361923201460396E-002	2.0441308E-005
2	1	0	1	4.021099898418470E+000	-6.0295373E-001	-6.0300493E-001	-3.241411974106713E-002	1.9545874E-005
2	1	0	1	4.071199897152837E+000	-5.9794295E-001	-5.9800696E-001	-3.126354184066141E-002	1.8695815E-005
2	1	0	1	4.121199895889731E+000	-5.9294093E-001	-5.9298384E-001	-3.009815212739764E-002	1.7847718E-005
2	1	0	1	4.171199894626625E+000	-5.8794504E-001	-5.8799398E-001	-2.895469988245736E-002	1.7025190E-005
2	1	0	0	4.221399893358466E+000	-5.8292234E-001	-5.8297956E-001	-2.787021571926399E-002	1.6247766E-005
2	1	0	0	4.271399892095360E+000	-5.7792270E-001	-5.7797986E-001	-2.683129279227137E-002	1.5507947E-005
2	1	0	0	4.321399890832254E+000	-5.7292396E-001	-5.7298636E-001	-2.582701070286386E-002	1.4798525E-005
2	1	0	1	4.371599889564095E+000	-5.6790143E-001	-5.6796092E-001	-2.485136209142280E-002	1.4114602E-005
2	1	0	1	4.421599888300989E+000	-5.6290346E-001	-5.6296444E-001	-2.392190779628611E-002	1.3467184E-005
2	1	0	1	4.471599887037883E+000	-5.5790311E-001	-5.5797368E-001	-2.305520166232897E-002	1.2864196E-005
2	1	0	0	4.521699885772250E+000	-5.5289119E-001	-5.5295211E-001	-2.215980850462917E-002	1.2253313E-005
2	1	0	0	4.571799884506618E+000	-5.4788482E-001	-5.4794765E-001	-2.129722147364277E-002	1.1669762E-005
2	1	0	0	4.621799883243511E+000	-5.4288238E-001	-5.4293603E-001	-2.048586010689801E-002	1.1122512E-005
2	1	0	1	4.671899881977879E+000	-5.3787261E-001	-5.3791940E-001	-1.965441963075940E-002	1.0572494E-005
2	1	0	1	4.721999880712247E+000	-5.3286350E-001	-5.3292084E-001	-1.885986701938065E-002	1.0050816E-005
2	1	0	1	4.771999879449140E+000	-5.2786124E-001	-5.2791542E-001	-1.809536081352089E-002	9.5528203E-006
2	1	0	0	4.822099878183508E+000	-5.2285391E-001	-5.2291626E-001	-1.739056995966839E-002	9.0938120E-006
2	1	0	0	4.872199876917875E+000	-5.1784307E-001	-5.1790261E-001	-1.669985414838890E-002	8.6488981E-006
2	1	0	0	4.922199875654769E+000	-5.1284164E-001	-5.1290220E-001	-1.599169502277803E-002	8.2021752E-006
2	1	0	0	4.972199874391663E+000	-5.0784451E-001	-5.0789732E-001	-1.533852084621265E-002	7.7903933E-006
2	1	0	1	5.022399873123504E+000	-5.0282198E-001	-5.0288713E-001	-1.470738755292132E-002	7.3961560E-006
2	1	0	1	5.072399871860398E+000	-4.9782249E-001	-4.9787897E-001	-1.410626299847528E-002	7.0232118E-006
2	1	0	1	5.122399870597292E+000	-4.9282375E-001	-4.9287182E-001	-1.352100723210298E-002	6.6641232E-006
2	1	0	0	5.172599869329133E+000	-4.8780099E-001	-4.8785594E-001	-1.293717589361469E-002	6.3114780E-006
2	1	0	0	5.222599868066027E+000	-4.8280424E-001	-4.8284668E-001	-1.241244707478120E-002	5.9933086E-006
2	1	0	0	5.272599866802921E+000	-4.7780284E-001	-4.7783509E-001	-1.189003568793756E-002	5.6814761E-006
2	1	0	1	5.322699865537288E+000	-4.7279146E-001	-4.7282624E-001	-1.136324588412360E-002	5.3728409E-006
2	1	0	1	5.372799864271656E+000	-4.6778399E-001	-4.6781233E-001	-1.087636329837396E-002	5.0880967E-006
2	1	0	1	5.422799863008549E+000	-4.6278197E-001	-4.6281829E-001	-1.039378371675989E-002	4.8104334E-006
2	1	0	0	5.472899861742917E+000	-4.5777261E-001	-4.5781228E-001	-9.941949939327843E-003	4.5515467E-006
2	1	0	0	5.522999860477285E+000	-4.5276353E-001	-4.5280516E-001	-9.503486690340027E-003	4.3032278E-006
2	1	0	0	5.572999859214178E+000	-4.4776130E-001	-4.4778928E-001	-9.072588888640182E-003	4.0626082E-006
2	1	0	1	5.623099857948546E+000	-4.4275412E-001	-4.4278938E-001	-8.676547477070022E-003	3.8418830E-006
2	1	0	1	5.673199856682913E+000	-4.3774238E-001	-4.3777993E-001	-8.273136837118809E-003	3.6218132E-006
2	1	0	1	5.723199855419807E+000	-4.3274155E-001	-4.3277839E-001	-7.886174959046630E-003	3.4129662E-006
2	1	0	1	5.773199854156701E+000	-4.2774403E-001	-4.2776123E-001	-7.510130393579596E-003	3.2125427E-006
2	1	0	0	5.823399852888542E+000	-4.2272165E-001	-4.2275879E-001	-7.159862528203567E-003	3.0268948E-006
2	1	0	0	5.873399851625436E+000	-4.1772306E-001	-4.1776043E-001	-6.818456789025137E-003	2.8484815E-006
2	1	0	0	5.923399850362330E+000	-4.1272315E-001	-4.1273990E-001	-6.477991816665737E-003	2.6737257E-006
2	1	0	1	5.973599849094171E+000	-4.0770090E-001	-4.0773174E-001	-6.165351999189439E-003	2.5138097E-006
2	1	0	1	6.023599847831065E+000	-4.0270403E-001	-4.0275213E-001	-5.866202293171613E-003	2.3626255E-006
2	1	0	1	6.073599846567959E+000	-3.9770249E-001	-3.9773878E-001	-5.577157782581395E-003	2.2182519E-006
2	1	0	0	6.123699845302326E+000	-3.9269152E-001	-3.9272070E-001	-5.312606248129547E-003	2.0863704E-006
2	1	0	0	6.173799844036694E+000	-3.8768405E-001	-3.8772520E-001	-5.043592097443053E-003	1.9555278E-006
2	1	0	0	6.223799842773587E+000	-3.8268152E-001	-3.8271034E-001	-4.770324187906398E-003	1.8256524E-006
2	1	0	1	6.288999841126497E+000	-3.7616271E-001	-3.7618831E-001	-4.438006774971767E-003	1.6695262E-006
2	1	0	1	6.353999839484459E+000	-3.6966291E-001	-3.6968851E-001	-4.137127721775630E-003	1.5294486E-006
2	1	0	1	6.403999838221353E+000	-3.6466295E-001	-3.6468202E-001	-3.936775108863304E-003	1.4356710E-006
2	1	0	0	6.454199836953194E+000	-3.5964039E-001	-3.5966584E-001	-3.715698710464184E-003	1.3364099E-006
2	1	0	0	6.504199835690088E+000	-3.5464445E-001	-3.5466039E-001	-3.516492182232525E-003	1.2471605E-006
2	1	0	0	6.554199834426981E+000	-3.4964207E-001	-3.4967127E-001	-3.322516408590395E-003	1.1617885E-006
2	1	0	1	6.604299833161349E+000	-3.4463176E-001	-3.4463388E-001	-3.124815374619332E-003	1.0769172E-006
2	1	0	1	6.654399831895716E+000	-3.3962354E-001	-3.3963013E-001	-2.955362298274172E-003	1.0037301E-006
2	1	0	1	6.704399830632610E+000	-3.3462134E-001	-3.3463249E-001	-2.785231115397746E-003	9.3202880E-007
2	1	0	0	6.754499829366978E+000	-3.2961285E-001	-3.2961267E-001	-2.615044454189946E-003	8.6195178E-007
2	1	0	0	6.804599828101345E+000	-3.2460290E-001	-3.2462189E-001	-2.456372652535906E-003	7.9739232E-007
2	1	0	0	6.854599826838239E+000	-3.1960067E-001	-3.1962386E-001	-2.312061321936270E-003	7.3898997E-007
2	1	0	0	6.904599825575133E+000	-3.1460407E-001	-3.1464237E-001	-2.169019291972708E-003	6.8246538E-007
2	1	0	1	6.954799824306974E+000	-3.0958170E-001	-3.0959448E-001	-2.033133002702837E-003	6.2944673E-007
2	1	0	1	7.004799823043868E+000	-3.0458185E-001	-3.0461809E-001	-1.898950639117995E-003	5.7845472E-007
2	1	0	1	7.054799821780762E+000	-2.9958326E-001	-2.9960236E-001	-1.771551996473109E-003	5.3076116E-007
2	1	0	0	7.104999820512603E+000	-2.9456094E-001	-2.9457092E-001	-1.646817434415747E-003	4.8510452E-007
2	1	0	0	7.154999819249497E+000	-2.8956315E-001	-2.8958020E-001	-1.535853608576415E-003	4.4475280E-007
2	1	0	0	7.204999817986391E+000	-2.8456244E-001	-2.8458518E-001	-1.420162214635513E-003	4.0415711E-007
2	1	0	1	7.255099816720758E+000	-2.7955076E-001	-2.7956408E-001	-1.319063794081018E-003	3.6876287E-007
2	1	0	1	7.305199815455126E+000	-2.7454421E-001	-2.7455753E-001	-1.219431408181555E-003	3.3480407E-007
2	1	0	1	7.355199814192019E+000	-2.6954165E-001	-2.6956525E-001	-1.131332722250546E-003	3.0496798E-007
2	1	0	0	7.405299812926387E+000	-2.6453173E-001	-2.6455840E-001	-1.043433457373457E-003	2.7604909E-007
2	1	0	0	7.455399811660754E+000	-2.5952336E-001	-2.5955057E-001	-9.542167812284647E-004	2.4766751E-007
2	1	0	0	7.505399810397648E+000	-2.5452080E-001	-2.5455722E-001	-8.686751299178197E-004	2.2112752E-007
2	1	0	1	7.555499809132016E+000	-2.4951321E-001	-2.4954304E-001	-7.968523680325149E-004	1.9884897E-007
2	1	0	1	7.605599807866383E+000	-2.4450231E-001	-2.4453487E-001	-7.194566853496332E-004	1.7593224E-007
2	1	0	1	7.655599806603277E+000	-2.3950079E-001	-2.3955862E-001	-6.540162429956413E-004	1.5667523E-007
2	1	0	1	7.705599805340171E+000	-2.3450387E-001	-2.3454557E-001	-5.867634382292234E-004	1.3762276E-007
2	1	0	0	7.755799804072012E+000	-2.2948165E-001	-2.2953030E-001	-5.242311922940782E-004	1.2032694E-007
2	1	0	0	7.805799802808906E+000	-2.2448209E-001	-2.2453141E-001	-4.622542774115390E-004	1.0379060E-007
2	1	0	0	7.855799801545800E+000	-2.1948297E-001	-2.1953772E-001	-4.102224770226873E-004	9.0059309E-008
2	1	0	1	7.905999800277641E+000	-2.1446076E-001	-2.1451192E-001	-3.553514429173810E-004	7.6227117E-008
2	1	0	1	7.955999799014535E+000	-2.0946342E-001	-2.0951590E-001	-3.055521889691378E-004	6.4018039E-008
2	1	0	1	8.005999797751429E+000	-2.0446220E-001	-2.0451181E-001	-2.557328573831198E-004	5.2300390E-008
2	1	0	0	8.056099796485796E+000	-1.9945070E-001	-1.9950160E-001	-2.068489410420071E-004	4.1266695E-008
2	1	0	0	8.106199795220164E+000	-1.9444381E-001	-1.9449300E-001	-1.652196702840027E-004	3.2134068E-008
2	1	0	0	8.156199793957057E+000	-1.8944126E-001	-1.8948360E-001	-1.225157474671696E-004	2.3214724E-008
2	1	0	1	8.206299792691425E+000	-1.8443216E-001	-1.8448067E-001	-8.746457429453249E-005	1.6135523E-008
2	1	0	1	8.256399791425793E+000	-1.7942287E-001	-1.7946790E-001	-4.769031368786385E-005	8.5588807E-009
2	1	0	1	8.306399790162686E+000	-1.7442021E-001	-1.7445332E-001	-1.227985058227494E-005	2.1422606E-009
2	1	0	0	8.356499788897054E+000	-1.6941325E-001	-1.6944703E-001	1.889244092114062E-005	3.2012681E-009
2	1	0	0	8.406599787631421E+000	-1.6440204E-001	-1.6442199E-001	4.864965735986545E-005	7.9990734E-009
2	1	0	0	8.456599786368315E+000	-1.5940081E-001	-1.5941414E-001	7.817612762908591E-005	1.2462380E-008
2	1	0	0	8.506599785105209E+000	-1.5440351E-001	-1.5440521E-001	1.059785647374470E-004	1.6363643E-008
2	1	0	1	8.556799783837050E+000	-1.4938113E-001	-1.4939953E-001	1.320863693263360E-004	1.9733642E-008
2	1	0	1	8.606799782573944E+000	-1.4438204E-001	-1.4440334E-001	1.589872092757866E-004	2.2958284E-008
2	1	0	1	8.656799781310838E+000	-1.3938251E-001	-1.3938034E-001	1.801085631752406E-004	2.5103592E-008
2	1	0	0	8.706999780042679E+000	-1.3436039E-001	-1.3436420E-001	2.028210732355996E-004	2.7251891E-008
2	1	0	0	8.756999778779573E+000	-1.2936346E-001	-1.2936400E-001	2.264050928209391E-004	2.9288667E-008
2	1	0	0	8.806999777516467E+000	-1.2436181E-001	-1.2436655E-001	2.467486539175162E-004	3.0687278E-008
2	1	0	1	8.857099776250834E+000	-1.1935098E-001	-1.1935304E-001	2.642426157880842E-004	3.1538161E-008
2	1	0	1	8.907199774985202E+000	-1.1434338E-001	-1.1433823E-001	2.846774622998732E-004	3.2549515E-008
2	1	0	1	8.957199773722095E+000	-1.0934090E-001	-1.0933317E-001	3.013107266042142E-004	3.2943259E-008
2	1	0	0	9.007299772456463E+000	-1.0433224E-001	-1.0432844E-001	3.160365284066687E-004	3.2971599E-008
2	1	0	0	9.057399771190831E+000	-9.9322625E-002	-9.9324375E-002	3.299296994179828E-004	3.2770060E-008
2	1	0	0	9.107399769927724E+000	-9.4320141E-002	-9.4316192E-002	3.454277605470114E-004	3.2579432E-008
2	1	0	1	9.157499768662092E+000	-8.9313529E-002	-8.9323297E-002	3.585652703486230E-004	3.2028233E-008
2	1	0	1	9.207599767396459E+000	-8.4301658E-002	-8.4302098E-002	3.719267495325839E-004	3.1354205E-008
2	1	0	1	9.257599766133353E+000	-7.9300977E-002	-7.9305515E-002	3.835394419628387E-004	3.0416793E-008
2	1	0	1	9.307599764870247E+000	-7.4303046E-002	-7.4308470E-002	3.946854511057379E-004	2.9328472E-008
2	1	0	0	9.357799763602088E+000	-6.9280677E-002	-6.9278866E-002	4.064055167319483E-004	2.8155313E-008
2	1	0	0	9.407799762338982E+000	-6.4282268E-002	-6.4293183E-002	4.176612285701747E-004	2.6852771E-008
2	1	0	0	9.457799761075876E+000	-5.9282318E-002	-5.9292179E-002	4.278253000818757E-004	2.5366694E-008
2	1	0	1	9.507999759807717E+000	-5.4259941E-002	-5.4258589E-002	4.389330439741185E-004	2.3815888E-008
2	1	0	1	9.557999758544611E+000	-4.9263559E-002	-4.9273141E-002	4.470214393397266E-004	2.2026150E-008
2	1	0	1	9.607999757281505E+000	-4.4261381E-002	-4.4265915E-002	4.563545831124546E-004	2.0200954E-008
2	1	0	0	9.658099756015872E+000	-3.9251100E-002	-3.9254714E-002	4.651414501780768E-004	1.8258994E-008
2	1	0	0	9.708199754750240E+000	-3.4243029E-002	-3.4249049E-002	4.736827000387097E-004	1.6223181E-008
2	1	0	0	9.758199753487133E+000	-2.9240634E-002	-2.9238828E-002	4.822712307432668E-004	1.4101046E-008
2	1	0	1	9.808299752221501E+000	-2.4232386E-002	-2.4229301E-002	4.900355539151080E-004	1.1873219E-008
2	1	0	1	9.858399750955869E+000	-1.9222099E-002	-1.9218497E-002	4.977496708770410E-004	9.5660004E-009
2	1	0	1	9.908399749692762E+000	-1.4219902E-002	-1.4220366E-002	5.052933864437142E-004	7.1854571E-009
2	1	0	1	9.958399748429656E+000	-9.2235506E-003	-9.2497608E-003	5.130604980107551E-004	4.7456870E-009
2	1	0	0	1.000859974716150E+001	-4.2011621E-003	-4.2325682E-003	5.208012403277442E-004	2.2043267E-009
2	1	0	0	1.005859974589839E+001	7.9881883E-004	7.8466022E-004	5.282108218611359E-004	4.1446602E-010
2	1	0	0	1.010859974463528E+001	5.7971664E-003	5.7697594E-003	5.354772578667925E-004	3.0895750E-009
2	1	0	1	1.015879974336713E+001	1.0819533E-002	1.0800022E-002	5.429752483819654E-004	5.8641443E-009
2	1	0	1	1.020879974210402E+001	1.5817475E-002	1.5803058E-002	5.504714715577723E-004	8.6991321E-009
2	1	0	1	1.025879974084091E+001	2.0818040E-002	2.0801788E-002	5.579681653607245E-004	1.1606736E-008
2	1	0	0	1.030889973957528E+001	2.5829913E-002	2.5813470E-002	5.654202446479326E-004	1.4595458E-008
2	1	0	0	1.035899973830965E+001	3.0836524E-002	3.0826036E-002	5.728666002920938E-004	1.7659206E-008
2	1	0	0	1.040899973704654E+001	3.5838716E-002	3.5827961E-002	5.807377192813749E-004	2.0806649E-008
2	1	0	1	1.045909973578091E+001	4.0848576E-002	4.0830050E-002	5.894650976017938E-004	2.4067889E-008
2	1	0	1	1.050919973451528E+001	4.5857210E-002	4.5849938E-002	5.972365038617071E-004	2.7383257E-008
2	1	0	1	1.055919973325217E+001	5.0859582E-002	5.0830923E-002	6.070810346669791E-004	3.0858491E-008
2	1	0	0	1.060929973198654E+001	5.5867210E-002	5.5850845E-002	6.162386184551541E-004	3.4417447E-008
2	1	0	0	1.065939973072091E+001	6.0878120E-002	6.0868066E-002	6.251793129512934E-004	3.8053457E-008
2	1	0	0	1.070939972945780E+001	6.5879658E-002	6.5875039E-002	6.342609285101136E-004	4.1781963E-008
2	1	0	0	1.075939972819469E+001	7.0876420E-002	7.0861444E-002	6.449318837089199E-004	4.5700805E-008
2	1	0	1	1.080959972692654E+001	7.5898990E-002	7.5897649E-002	6.557345136531129E-004	4.9768708E-008
2	1	0	1	1.085959972566343E+001	8.0898300E-002	8.0884650E-002	6.651724787237476E-004	5.3802243E-008
2	1	0	1	1.090959972440032E+001	8.5897282E-002	8.5889675E-002	6.756044944434964E-004	5.8027450E-008
2	1	0	0	1.095979972313216E+001	9.0919606E-002	9.0898253E-002	6.867823240756937E-004	6.2427311E-008
2	1	0	0	1.100979972186906E+001	9.5916972E-002	9.5906913E-002	6.983741239225127E-004	6.6978906E-008
2	1	0	0	1.104249972104299E+001	9.9191159E-002	9.9178888E-002	7.061605720516846E-004	7.0036222E-008
2	1	0	0	1.105059972083836E+001	9.9997252E-002	9.9975102E-002	7.133092925262954E-004	7.1313167E-008