EC-Lab ASCII FILE
Nb header lines : 55                          

I-V Characterization

Run on channel : 1 (SN 6514)
User : 
CE vs. WE compliance from -10 V to 10 V
Electrode connection : standard
Ewe ctrl range : min = -1.10 V, max = 0.20 V
Safety Limits :
	Do not start on E overload
Acquisition started on : 06/15/2016 17:52:50
Saved on :
	File : B125-G54-UN-G-D1GB-C6 FW 100mVs_04_IVC_C01.mpr
	Directory : E:\EC-Lab measurements\B125-G54-UN-G-D1GB\
	Host : 10.0.2.15
Device : VSP (SN 0295)
Address : USB
EC-Lab for windows v11.01 (software)
Internet server v11.00 (firmware)
Command interpretor v11.00 (firmware)
Electrode material : 
Initial state : 
Electrolyte : 
Comments : 
Electrode surface area : 0.001 cm²
Characteristic mass : 0.001 g
Equivalent Weight : 0.000 g/eq.
Density : 0.000 g/cm3
tR (h:m:s)          0:00:0.0000         
dER/dt (mV/h)       0.0                 
dER (mV)            0                   
dtR (s)             0.0000              
dE/dt               100.000             
dE/dt unit          mV/s                
Ei (V)              0.100               
vs.                 Ref                 
EL (V)              -1.000              
vs.                 Ref                 
record              <I>                 
dI                  0.000               
unit dI             µA                  
tI (s)              0.1000              
step percent        100                 
N                   100                 
E range min (V)     -1.100              
E range max (V)     0.200               
I Range             Auto                
I Range min         Unset               
I Range max         Unset               
I Range init        Unset               
Bandwidth           5                   

mode	ox/red	error	control changes	time/s	control/V	Ewe/V	<I>/mA	P/W
2	0	0	1	3.305279916501604E+001	9.9989444E-002	9.9969849E-002	4.656616151332855E-001	4.6552123E-005
2	0	0	0	3.307809916437691E+001	9.7461030E-002	9.7348951E-002	1.102617400469951E+000	1.0733864E-004
2	0	0	0	3.312819916311128E+001	9.2448950E-002	9.2342198E-002	1.098607892949485E+000	1.0144787E-004
2	0	0	0	3.317819916184817E+001	8.7448440E-002	8.7337948E-002	1.096027494738051E+000	9.5724790E-005
2	0	0	0	3.322819916058506E+001	8.2450397E-002	8.2336798E-002	1.094928177896346E+000	9.0152884E-005
2	0	0	1	3.327839915931690E+001	7.7428341E-002	7.7323101E-002	1.095079639903407E+000	8.4674954E-005
2	0	0	1	3.332839915805380E+001	7.2429545E-002	7.2319031E-002	1.095098403218946E+000	7.9196456E-005
2	0	0	1	3.337839915679069E+001	6.7429930E-002	6.7325793E-002	1.095358576708222E+000	7.3745883E-005
2	0	0	0	3.342859915552253E+001	6.2407676E-002	6.2304907E-002	1.096399060105328E+000	6.8311041E-005
2	0	0	0	3.347859915425943E+001	5.7410609E-002	5.7291564E-002	1.096509692162451E+000	6.2820756E-005
2	0	0	0	3.352859915299632E+001	5.2409351E-002	5.2290477E-002	1.096367456017992E+000	5.7329577E-005
2	0	0	1	3.357869915173069E+001	4.7398046E-002	4.7288910E-002	1.095516660103065E+000	5.1805790E-005
2	0	0	1	3.362879915046506E+001	4.2390931E-002	4.2274285E-002	1.094363691583189E+000	4.6263442E-005
2	0	0	1	3.367879914920195E+001	3.7388671E-002	3.7285216E-002	1.091862055733406E+000	4.0710314E-005
2	0	0	0	3.372889914793632E+001	3.2379128E-002	3.2257989E-002	1.090276752647934E+000	3.5170135E-005
2	0	0	0	3.377899914667069E+001	2.7370209E-002	2.7239436E-002	1.088886743279695E+000	2.9660661E-005
2	0	0	0	3.382899914540758E+001	2.2368150E-002	2.2262275E-002	1.085695065060388E+000	2.4170042E-005
2	0	0	1	3.387909914414195E+001	1.7360233E-002	1.7240224E-002	1.081455803236858E+000	1.8644541E-005
2	0	0	1	3.392919914287631E+001	1.2349692E-002	1.2228621E-002	1.077115078126887E+000	1.3171632E-005
2	0	0	1	3.397919914161321E+001	7.3476313E-003	7.2233090E-003	1.072130460537460E+000	7.7443292E-006
2	0	0	1	3.402919914035010E+001	2.3509539E-003	2.2268547E-003	1.068446130970301E+000	2.3792743E-006
2	0	0	0	3.407939913908194E+001	-2.6708313E-003	-2.7999894E-003	1.063775401361246E+000	2.9785599E-006
2	0	0	0	3.412939913781884E+001	-7.6712989E-003	-7.8054010E-003	1.057214868673380E+000	8.2519864E-006
2	0	0	0	3.417939913655573E+001	-1.2669345E-002	-1.2796793E-002	1.050767986564885E+000	1.3446461E-005
2	0	0	1	3.422959913528757E+001	-1.7691616E-002	-1.7810054E-002	1.043792845433797E+000	1.8590006E-005
2	0	0	1	3.427959913402447E+001	-2.2690266E-002	-2.2798488E-002	1.037796153316736E+000	2.3660183E-005
2	0	0	1	3.432959913276136E+001	-2.7690133E-002	-2.7806757E-002	1.032849339388395E+000	2.8720191E-005
2	0	0	0	3.437979913149320E+001	-3.2712191E-002	-3.2826208E-002	1.028123408137590E+000	3.3749391E-005
2	0	0	0	3.442979913023009E+001	-3.7709232E-002	-3.7814483E-002	1.022511329412374E+000	3.8665738E-005
2	0	0	0	3.447979912896699E+001	-4.2710699E-002	-4.2823635E-002	1.016190425812040E+000	4.3516968E-005
2	0	0	1	3.452989912770136E+001	-4.7721874E-002	-4.7833689E-002	1.011400129938606E+000	4.8378999E-005
2	0	0	1	3.457999912643572E+001	-5.2729208E-002	-5.2835770E-002	1.005287642063719E+000	5.3115145E-005
2	0	0	1	3.462999912517262E+001	-5.7731293E-002	-5.7833042E-002	9.995516925766914E-001	5.7807116E-005
2	0	0	0	3.468009912390698E+001	-6.2740840E-002	-6.2856913E-002	9.944599038712845E-001	6.2508676E-005
2	0	0	0	3.473019912264135E+001	-6.7749776E-002	-6.7864418E-002	9.889971269908138E-001	6.7117711E-005
2	0	0	0	3.478019912137825E+001	-7.2752103E-002	-7.2870187E-002	9.834234304626168E-001	7.1662253E-005
2	0	0	1	3.483029912011261E+001	-7.7759840E-002	-7.7871151E-002	9.786433109189892E-001	7.6208082E-005
2	0	0	1	3.488039911884698E+001	-8.2770571E-002	-8.2884111E-002	9.738338218694871E-001	8.0715348E-005
2	0	0	1	3.493039911758387E+001	-8.7772399E-002	-8.7888040E-002	9.684245241199001E-001	8.5112930E-005
2	0	0	1	3.498039911632077E+001	-9.2768870E-002	-9.2863038E-002	9.626373270844617E-001	8.9393427E-005
2	0	0	0	3.503059911505261E+001	-9.7791143E-002	-9.7881541E-002	9.571284275515914E-001	9.3685208E-005
2	0	0	0	3.508059911378950E+001	-1.0279151E-001	-1.0290208E-001	9.517920367364834E-001	9.7941382E-005
2	0	0	0	3.513059911252640E+001	-1.0778970E-001	-1.0790675E-001	9.468902654771298E-001	1.0217585E-004
2	0	0	1	3.518079911125824E+001	-1.1281172E-001	-1.1292436E-001	9.406722070760756E-001	1.0622480E-004
2	0	0	1	3.523079910999513E+001	-1.1781041E-001	-1.1791760E-001	9.362775369329057E-001	1.1040360E-004
2	0	0	1	3.528079910873203E+001	-1.2281021E-001	-1.2291285E-001	9.318889436554407E-001	1.1454112E-004
2	0	0	0	3.533099910746387E+001	-1.2783252E-001	-1.2793918E-001	9.259192128753497E-001	1.1846134E-004
2	0	0	0	3.538099910620076E+001	-1.3282932E-001	-1.3292301E-001	9.212154336195741E-001	1.2245073E-004
2	0	0	0	3.543099910493765E+001	-1.3783094E-001	-1.3792881E-001	9.166317114410107E-001	1.2642992E-004
2	0	0	1	3.548109910367202E+001	-1.4284213E-001	-1.4295954E-001	9.120430650705629E-001	1.3038525E-004
2	0	0	1	3.553119910240639E+001	-1.4784934E-001	-1.4797655E-001	9.077539069372307E-001	1.3432628E-004
2	0	0	1	3.558119910114328E+001	-1.5285152E-001	-1.5297702E-001	9.036307241914834E-001	1.3823474E-004
2	0	0	0	3.563129909987765E+001	-1.5786098E-001	-1.5799233E-001	8.982640303342748E-001	1.4191883E-004
2	0	0	0	3.568139909861202E+001	-1.6287008E-001	-1.6300571E-001	8.932859619947529E-001	1.4561071E-004
2	0	0	0	3.573139909734891E+001	-1.6787243E-001	-1.6799840E-001	8.883217255708864E-001	1.4923663E-004
2	0	0	1	3.578149909608328E+001	-1.7287986E-001	-1.7301919E-001	8.829035928677964E-001	1.5275925E-004
2	0	0	1	3.583159909481765E+001	-1.7789057E-001	-1.7802082E-001	8.777343040271024E-001	1.5625499E-004
2	0	0	1	3.588159909355454E+001	-1.8289267E-001	-1.8304136E-001	8.724019196559212E-001	1.5968563E-004
2	0	0	1	3.593159909229144E+001	-1.8788922E-001	-1.8802045E-001	8.666810735240986E-001	1.6295377E-004
2	0	0	0	3.598179909102328E+001	-1.9291149E-001	-1.9305900E-001	8.610827367204084E-001	1.6623977E-004
2	0	0	0	3.603179908976017E+001	-1.9791168E-001	-1.9806054E-001	8.568912565086126E-001	1.6971635E-004
2	0	0	0	3.608179908849706E+001	-2.0290995E-001	-2.0305164E-001	8.514790271280042E-001	1.7289422E-004
2	0	0	1	3.613199908722891E+001	-2.0793210E-001	-2.0807508E-001	8.455602511183585E-001	1.7594002E-004
2	0	0	1	3.618199908596580E+001	-2.1293038E-001	-2.1306592E-001	8.406221358858641E-001	1.7910793E-004
2	0	0	1	3.623199908470269E+001	-2.1793048E-001	-2.1807648E-001	8.358945554111266E-001	1.8228895E-004
2	0	0	0	3.628219908343453E+001	-2.2295284E-001	-2.2310500E-001	8.307179436585344E-001	1.8533733E-004
2	0	0	0	3.633219908217143E+001	-2.2794949E-001	-2.2810149E-001	8.251399250453391E-001	1.8821565E-004
2	0	0	0	3.638219908090832E+001	-2.3295131E-001	-2.3308751E-001	8.201769938556716E-001	1.9117301E-004
2	0	0	1	3.643229907964269E+001	-2.3796229E-001	-2.3810202E-001	8.145411290830626E-001	1.9394388E-004
2	0	0	1	3.648239907837706E+001	-2.4296960E-001	-2.4311584E-001	8.105668699999917E-001	1.9706164E-004
2	0	0	1	3.653239907711395E+001	-2.4797191E-001	-2.4809191E-001	8.051056603213347E-001	1.9974020E-004
2	0	0	0	3.658249907584832E+001	-2.5298098E-001	-2.5309899E-001	7.989694415425208E-001	2.0221836E-004
2	0	0	0	3.663259907458269E+001	-2.5799045E-001	-2.5810790E-001	7.936277455391916E-001	2.0484159E-004
2	0	0	0	3.668259907331958E+001	-2.6299244E-001	-2.6311171E-001	7.877036568011597E-001	2.0725405E-004
2	0	0	1	3.673269907205395E+001	-2.6799995E-001	-2.6811802E-001	7.820467105564006E-001	2.0968082E-004
2	0	0	1	3.678279907078831E+001	-2.7301118E-001	-2.7313539E-001	7.770360304645028E-001	2.1223605E-004
2	0	0	1	3.683279906952521E+001	-2.7801278E-001	-2.7813974E-001	7.707185836437631E-001	2.1436746E-004
2	0	0	1	3.688279906826210E+001	-2.8300959E-001	-2.8313395E-001	7.642343450314026E-001	2.1638069E-004
2	0	0	0	3.693299906699394E+001	-2.8803149E-001	-2.8814444E-001	7.570938702966465E-001	2.1815239E-004
2	0	0	0	3.698299906573084E+001	-2.9303154E-001	-2.9314274E-001	7.507734256571315E-001	2.2008378E-004
2	0	0	0	3.703299906446773E+001	-2.9803017E-001	-2.9817182E-001	7.445918606407815E-001	2.2201632E-004
2	0	0	1	3.708319906319957E+001	-3.0305225E-001	-3.0318025E-001	7.378044949480973E-001	2.2368775E-004
2	0	0	1	3.713319906193647E+001	-3.0805054E-001	-3.0819154E-001	7.300669044645645E-001	2.2500045E-004
2	0	0	1	3.718319906067336E+001	-3.1305107E-001	-3.1316829E-001	7.229325416440400E-001	2.2639954E-004
2	0	0	0	3.723339905940520E+001	-3.1807294E-001	-3.1820208E-001	7.152798450733613E-001	2.2760354E-004
2	0	0	0	3.728339905814209E+001	-3.2306966E-001	-3.2320747E-001	7.078776082949823E-001	2.2879132E-004
2	0	0	0	3.733339905687899E+001	-3.2807136E-001	-3.2815984E-001	6.998365229119159E-001	2.2965824E-004
2	0	0	1	3.738349905561336E+001	-3.3308208E-001	-3.3318007E-001	6.914845957240505E-001	2.3038889E-004
2	0	0	1	3.743359905434772E+001	-3.3808994E-001	-3.3819672E-001	6.841790612551790E-001	2.3138712E-004
2	0	0	1	3.748359905308462E+001	-3.4309193E-001	-3.4321189E-001	6.768395791421229E-001	2.3229940E-004
2	0	0	0	3.753369905181899E+001	-3.4810114E-001	-3.4821844E-001	6.686720446493215E-001	2.3284394E-004
2	0	0	0	3.758379905055335E+001	-3.5311079E-001	-3.5324010E-001	6.603464110759454E-001	2.3326083E-004
2	0	0	0	3.763379904929025E+001	-3.5811275E-001	-3.5825008E-001	6.510685081258980E-001	2.3324534E-004
2	0	0	1	3.768389904802461E+001	-3.6312038E-001	-3.6324537E-001	6.430255185027944E-001	2.3357604E-004
2	0	0	1	3.773399904675898E+001	-3.6813122E-001	-3.6824745E-001	6.336954488339011E-001	2.3335674E-004
2	0	0	1	3.778399904549588E+001	-3.7313288E-001	-3.7323755E-001	6.246336572603415E-001	2.3313674E-004
2	0	0	1	3.783399904423277E+001	-3.7812957E-001	-3.7825632E-001	6.146932310690545E-001	2.3251159E-004
2	0	0	0	3.788419904296461E+001	-3.8315186E-001	-3.8326538E-001	6.046207480314809E-001	2.3173020E-004
2	0	0	0	3.793419904170150E+001	-3.8815185E-001	-3.8826409E-001	5.954422982302037E-001	2.3118887E-004
2	0	0	0	3.798419904043840E+001	-3.9315066E-001	-3.9326939E-001	5.852311770466256E-001	2.3015351E-004
2	0	0	1	3.803439903917024E+001	-3.9817253E-001	-3.9830819E-001	5.747395213540103E-001	2.2892345E-004
2	0	0	1	3.808439903790713E+001	-4.0317100E-001	-4.0329891E-001	5.645878955350194E-001	2.2769769E-004
2	0	0	1	3.813439903664403E+001	-4.0817088E-001	-4.0829110E-001	5.535465412024125E-001	2.2600812E-004
2	0	0	0	3.818459903537587E+001	-4.1319349E-001	-4.1330996E-001	5.424165114017554E-001	2.2418615E-004
2	0	0	0	3.823459903411276E+001	-4.1818956E-001	-4.1831011E-001	5.315246426471330E-001	2.2234213E-004
2	0	0	0	3.828459903284966E+001	-4.2319176E-001	-4.2330849E-001	5.202963770691547E-001	2.2024587E-004
2	0	0	1	3.833469903158402E+001	-4.2820245E-001	-4.2831939E-001	5.085229427293321E-001	2.1781024E-004
2	0	0	1	3.838479903031839E+001	-4.3321025E-001	-4.3333298E-001	4.968363177635382E-001	2.1529556E-004
2	0	0	1	3.843479902905528E+001	-4.3821239E-001	-4.3834165E-001	4.841098011049194E-001	2.1220549E-004
2	0	0	0	3.848489902778965E+001	-4.4322163E-001	-4.4333881E-001	4.716717691313841E-001	2.0911040E-004
2	0	0	0	3.855019902614004E+001	-4.4975296E-001	-4.4985297E-001	4.550805273259275E-001	2.0471933E-004
2	0	0	1	3.861559902448789E+001	-4.5629048E-001	-4.5637387E-001	4.380551094606551E-001	1.9991690E-004
2	0	0	1	3.866559902322479E+001	-4.6129280E-001	-4.6136945E-001	4.245609222853117E-001	1.9587945E-004
2	0	0	0	3.871569902195915E+001	-4.6630058E-001	-4.6636558E-001	4.107577203475836E-001	1.9156326E-004
2	0	0	0	3.876579902069352E+001	-4.7131148E-001	-4.7138116E-001	3.962425467289465E-001	1.8678127E-004
2	0	0	0	3.881579901943041E+001	-4.7631308E-001	-4.7638455E-001	3.820391752821699E-001	1.8199756E-004
2	0	0	0	3.886579901816731E+001	-4.8131022E-001	-4.8139113E-001	3.678447874266135E-001	1.7707722E-004
2	0	0	1	3.891599901689915E+001	-4.8633200E-001	-4.8641488E-001	3.534206440772426E-001	1.7190907E-004
2	0	0	1	3.896599901563604E+001	-4.9133226E-001	-4.9142152E-001	3.385965925477450E-001	1.6639366E-004
2	0	0	1	3.901599901437294E+001	-4.9633035E-001	-4.9642068E-001	3.232662983733799E-001	1.6047608E-004
2	0	0	0	3.906619901310478E+001	-5.0135267E-001	-5.0145030E-001	3.082917930730640E-001	1.5459301E-004
2	0	0	0	3.911619901184167E+001	-5.0635099E-001	-5.0645006E-001	2.928147823622647E-001	1.4829607E-004
2	0	0	0	3.916619901057857E+001	-5.1135129E-001	-5.1143748E-001	2.774577452219897E-001	1.4190229E-004
2	0	0	1	3.921639900931041E+001	-5.1637357E-001	-5.1647562E-001	2.618481778832087E-001	1.3523820E-004
2	0	0	1	3.926639900804730E+001	-5.2137023E-001	-5.2147794E-001	2.462614545850896E-001	1.2841991E-004
2	0	0	1	3.931639900678420E+001	-5.2637178E-001	-5.2646053E-001	2.302407226144290E-001	1.2121265E-004
2	0	0	0	3.936649900551856E+001	-5.3138292E-001	-5.3147507E-001	2.140395586342319E-001	1.1375669E-004
2	0	0	0	3.941659900425293E+001	-5.3639013E-001	-5.3649414E-001	1.970894303396951E-001	1.0573732E-004
2	0	0	0	3.946659900298982E+001	-5.4139268E-001	-5.4149467E-001	1.804459418086652E-001	9.7710516E-005
2	0	0	1	3.951669900172419E+001	-5.4640150E-001	-5.4649991E-001	1.638591666529177E-001	8.9549023E-005
2	0	0	1	3.956679900045856E+001	-5.5141091E-001	-5.5151093E-001	1.468891201627922E-001	8.1010956E-005
2	0	0	1	3.961679899919545E+001	-5.5641329E-001	-5.5650961E-001	1.298708576233456E-001	7.2274379E-005
2	0	0	0	3.966689899792982E+001	-5.6142074E-001	-5.6151748E-001	1.128118674790628E-001	6.3345833E-005
2	0	0	0	3.971699899666419E+001	-5.6643176E-001	-5.6652421E-001	9.588694136122200E-002	5.4322274E-005
2	0	0	0	3.976699899540108E+001	-5.7143342E-001	-5.7152158E-001	7.860579264967033E-002	4.4924906E-005
2	0	0	0	3.981699899413798E+001	-5.7643002E-001	-5.7652771E-001	6.139923775491196E-002	3.5398363E-005
2	0	0	1	3.986719899286982E+001	-5.8145243E-001	-5.8153009E-001	4.401207457567180E-002	2.5594345E-005
2	0	0	1	3.991719899160671E+001	-5.8645183E-001	-5.8653831E-001	2.689398810610864E-002	1.5774354E-005
2	0	0	1	3.998219898996467E+001	-5.9295589E-001	-5.9306544E-001	4.232263101949948E-003	2.5100089E-006
2	0	0	0	4.004739898831758E+001	-5.9947097E-001	-5.9956551E-001	-1.853731775751488E-002	1.1114336E-005
2	0	0	0	4.009739898705448E+001	-6.0447282E-001	-6.0456800E-001	-3.582969970669742E-002	2.1661490E-005
2	0	0	1	4.014749898578884E+001	-6.0948151E-001	-6.0957384E-001	-5.332906272242766E-002	3.2508000E-005
2	0	0	1	4.019759898452321E+001	-6.1449128E-001	-6.1459577E-001	-7.093550478284905E-002	4.3596661E-005
2	0	0	1	4.024759898326010E+001	-6.1949378E-001	-6.1958796E-001	-8.828389739824294E-002	5.4699638E-005
2	0	0	0	4.031279898161301E+001	-6.2601209E-001	-6.2608969E-001	-1.109349599998843E-001	6.9455236E-005
2	0	0	0	4.037779897997098E+001	-6.3251024E-001	-6.3261008E-001	-1.333332764358675E-001	8.4347972E-005
2	0	0	0	4.042779897870787E+001	-6.3751209E-001	-6.3760465E-001	-1.507014361568781E-001	9.6087941E-005
2	0	0	1	4.047789897744224E+001	-6.4252281E-001	-6.4259988E-001	-1.678564329843706E-001	1.0786452E-004
2	0	0	1	4.052799897617660E+001	-6.4753062E-001	-6.4760780E-001	-1.849583491002469E-001	1.1978047E-004
2	0	0	1	4.057799897491350E+001	-6.5253282E-001	-6.5261358E-001	-2.017462346989127E-001	1.3166234E-004
2	0	0	0	4.062809897364787E+001	-6.5754199E-001	-6.5761083E-001	-2.185489394142366E-001	1.4372016E-004
2	0	0	0	4.067819897238223E+001	-6.6255081E-001	-6.6261435E-001	-2.352814124031806E-001	1.5590084E-004
2	0	0	0	4.072819897111913E+001	-6.6755307E-001	-6.6762036E-001	-2.518425009581700E-001	1.6813519E-004
2	0	0	1	4.077829896985349E+001	-6.7256105E-001	-6.7263156E-001	-2.684600928564360E-001	1.8057473E-004
2	0	0	1	4.082839896858786E+001	-6.7757195E-001	-6.7764592E-001	-2.847892853988556E-001	1.9298629E-004
2	0	0	1	4.087839896732476E+001	-6.8257344E-001	-6.8263417E-001	-3.011476117427454E-001	2.0557365E-004
2	0	0	1	4.092839896606165E+001	-6.8757075E-001	-6.8763089E-001	-3.170637764211588E-001	2.1802285E-004
2	0	0	0	4.097859896479349E+001	-6.9259244E-001	-6.9265777E-001	-3.331528785169002E-001	2.3076092E-004
2	0	0	0	4.102859896353038E+001	-6.9759268E-001	-6.9765574E-001	-3.485959747216878E-001	2.4319997E-004
2	0	0	0	4.107859896226728E+001	-7.0259088E-001	-7.0264882E-001	-3.640546023875952E-001	2.5580253E-004
2	0	0	1	4.112879896099912E+001	-7.0761317E-001	-7.0769286E-001	-3.796628078371240E-001	2.6868467E-004
2	0	0	1	4.117879895973601E+001	-7.1261144E-001	-7.1267754E-001	-3.952912646851146E-001	2.8171521E-004
2	0	0	1	4.122879895847291E+001	-7.1761149E-001	-7.1766913E-001	-4.107705045272974E-001	2.9479730E-004
2	0	0	0	4.127899895720475E+001	-7.2263390E-001	-7.2269231E-001	-4.256809928636849E-001	3.0763639E-004
2	0	0	0	4.132899895594164E+001	-7.2763073E-001	-7.2768378E-001	-4.403521424928842E-001	3.2043710E-004
2	0	0	0	4.137899895467854E+001	-7.3263222E-001	-7.3269331E-001	-4.547342559063221E-001	3.3318074E-004
2	0	0	1	4.142909895341290E+001	-7.3764354E-001	-7.3770595E-001	-4.691246024151541E-001	3.4607601E-004
2	0	0	1	4.147919895214727E+001	-7.4265063E-001	-7.4270570E-001	-4.833731216552737E-001	3.5900399E-004
2	0	0	1	4.152919895088417E+001	-7.4765301E-001	-7.4771905E-001	-4.975257090877037E-001	3.7200944E-004
2	0	0	0	4.157929894961853E+001	-7.5266200E-001	-7.5273752E-001	-5.112177253444345E-001	3.8481277E-004
2	0	0	0	4.162939894835290E+001	-7.5767136E-001	-7.5774485E-001	-5.246096989233680E-001	3.9752029E-004
2	0	0	0	4.167939894708979E+001	-7.6267380E-001	-7.6273644E-001	-5.385619408481609E-001	4.1078081E-004
2	0	0	1	4.172949894582416E+001	-7.6768136E-001	-7.6776850E-001	-5.521681844536395E-001	4.2393734E-004
2	0	0	1	4.177959894455853E+001	-7.7269208E-001	-7.7276391E-001	-5.655671964353767E-001	4.3704992E-004
2	0	0	1	4.182959894329542E+001	-7.7769405E-001	-7.7776754E-001	-5.792491442950305E-001	4.5052118E-004
2	0	0	1	4.187959894203232E+001	-7.8269041E-001	-7.8276414E-001	-5.921251634914988E-001	4.6349433E-004
2	0	0	0	4.192979894076416E+001	-7.8771299E-001	-7.8778976E-001	-6.052352919143731E-001	4.7679816E-004
2	0	0	0	4.197979893950105E+001	-7.9271245E-001	-7.9279613E-001	-6.179767198660580E-001	4.8992957E-004
2	0	0	0	4.202979893823795E+001	-7.9771137E-001	-7.9780537E-001	-6.308370792026456E-001	5.0328521E-004
2	0	0	1	4.207999893696979E+001	-8.0273342E-001	-8.0279690E-001	-6.435882193815594E-001	5.1667064E-004
2	0	0	1	4.212999893570668E+001	-8.0773175E-001	-8.0782640E-001	-6.557497134706232E-001	5.2973191E-004
2	0	0	1	4.217999893444357E+001	-8.1273216E-001	-8.1282371E-001	-6.680598436389591E-001	5.4301490E-004
2	0	0	0	4.223019893317542E+001	-8.1775451E-001	-8.1785637E-001	-6.799811573316585E-001	5.5612694E-004
2	0	0	0	4.228019893191231E+001	-8.2275045E-001	-8.2284385E-001	-6.916062998881358E-001	5.6908402E-004
2	0	0	0	4.233019893064920E+001	-8.2775265E-001	-8.2785034E-001	-7.037053466708691E-001	5.8256270E-004
2	0	0	1	4.238029892938357E+001	-8.3276302E-001	-8.3286172E-001	-7.152390259989687E-001	5.9569522E-004
2	0	0	1	4.243039892811794E+001	-8.3777100E-001	-8.3785486E-001	-7.272004672978198E-001	6.0928846E-004
2	0	0	1	4.248039892685483E+001	-8.4277338E-001	-8.4286022E-001	-7.384443581310798E-001	6.2240538E-004
2	0	0	0	4.253049892558920E+001	-8.4778231E-001	-8.4787589E-001	-7.489863703845399E-001	6.3504750E-004
2	0	0	0	4.258059892432357E+001	-8.5279197E-001	-8.5289043E-001	-7.600446036576702E-001	6.4823480E-004
2	0	0	0	4.263059892306046E+001	-8.5779423E-001	-8.5788798E-001	-7.703048830569514E-001	6.6083530E-004
2	0	0	1	4.268069892179483E+001	-8.6280131E-001	-8.6290240E-001	-7.816585570629648E-001	6.7449507E-004
2	0	0	1	4.273079892052920E+001	-8.6781222E-001	-8.6791724E-001	-7.924920773447663E-001	6.8781752E-004
2	0	0	1	4.278079891926609E+001	-8.7281364E-001	-8.7291592E-001	-8.029427682944448E-001	7.0090155E-004
2	0	0	1	4.283079891800298E+001	-8.7781096E-001	-8.7788522E-001	-8.131621740417181E-001	7.1386306E-004
2	0	0	0	4.288099891673482E+001	-8.8283288E-001	-8.8289529E-001	-8.239084638796506E-001	7.2742492E-004
2	0	0	0	4.293099891547172E+001	-8.8783282E-001	-8.8791859E-001	-8.338173913771847E-001	7.4036198E-004
2	0	0	0	4.298099891420861E+001	-8.9283180E-001	-8.9292032E-001	-8.440699150950852E-001	7.5368717E-004
2	0	0	1	4.303119891294045E+001	-8.9785385E-001	-8.9791590E-001	-8.536402579235387E-001	7.6649716E-004
2	0	0	1	4.308119891167735E+001	-9.0285194E-001	-9.0293878E-001	-8.626746492083428E-001	7.7894237E-004
2	0	0	1	4.313119891041424E+001	-9.0785217E-001	-9.0793818E-001	-8.721064123517710E-001	7.9181872E-004
2	0	0	0	4.318139890914608E+001	-9.1287416E-001	-9.1296184E-001	-8.826088586716274E-001	8.0578821E-004
2	0	0	0	4.323139890788298E+001	-9.1787076E-001	-9.1793299E-001	-8.920315724524563E-001	8.1882521E-004
2	0	0	0	4.328139890661987E+001	-9.2287278E-001	-9.2294741E-001	-9.010770445982246E-001	8.3164673E-004
2	0	0	1	4.333149890535424E+001	-9.2788345E-001	-9.2796916E-001	-9.100063718863360E-001	8.4445783E-004
2	0	0	1	4.338159890408861E+001	-9.3289167E-001	-9.3297380E-001	-9.189218467283400E-001	8.5732999E-004
2	0	0	1	4.343159890282550E+001	-9.3789357E-001	-9.3796635E-001	-9.283456485730799E-001	8.7075698E-004
2	0	0	0	4.348169890155987E+001	-9.4290262E-001	-9.4299114E-001	-9.372197128668844E-001	8.8378991E-004
2	0	0	0	4.353179890029423E+001	-9.4791180E-001	-9.4799620E-001	-9.477442097699775E-001	8.9845789E-004
2	0	0	0	4.358179889903113E+001	-9.5291418E-001	-9.5297748E-001	-9.565576409773193E-001	9.1157790E-004
2	0	0	1	4.363189889776550E+001	-9.5792133E-001	-9.5796829E-001	-9.651401835093232E-001	9.2457369E-004
2	0	0	1	4.368199889649986E+001	-9.6293265E-001	-9.6300107E-001	-9.737484905307170E-001	9.3772082E-004
2	0	0	1	4.373199889523676E+001	-9.6793401E-001	-9.6800107E-001	-9.826001206651185E-001	9.5115794E-004
2	0	0	1	4.378199889397365E+001	-9.7293139E-001	-9.7299159E-001	-9.919727008795345E-001	9.6518110E-004
2	0	0	0	4.383219889270549E+001	-9.7795331E-001	-9.7802335E-001	-1.000699006154321E+000	9.7870699E-004
2	0	0	0	4.388219889144239E+001	-9.8295331E-001	-9.8302734E-001	-1.009025795686592E+000	9.9189999E-004
2	0	0	0	4.394719888980035E+001	-9.8945206E-001	-9.8956007E-001	-1.023053877371919E+000	1.0123732E-003
2	0	0	1	4.401239888815326E+001	-9.9597174E-001	-9.9610394E-001	-1.029887110289028E+000	1.0258746E-003
2	0	0	1	4.404489888733224E+001	-9.9922180E-001	-9.9934363E-001	-1.033697734956874E+000	1.0330193E-003
2	0	0	0	4.405259888713772E+001	-9.9999726E-001	-1.0001196E+000	-1.040127933025360E+000	1.0402523E-003