EC-Lab ASCII FILE
Nb header lines : 55                          

I-V Characterization

Run on channel : 1 (SN 6514)
User : 
CE vs. WE compliance from -10 V to 10 V
Electrode connection : standard
Ewe ctrl range : min = -1.10 V, max = 0.20 V
Safety Limits :
	Do not start on E overload
Acquisition started on : 06/15/2016 17:25:01
Saved on :
	File : B125-G54-UN-G-D1GB-C1 BW 10mVs dark_C01.mpr
	Directory : E:\EC-Lab measurements\B125-G54-UN-G-D1GB\
	Host : 10.0.2.15
Device : VSP (SN 0295)
Address : USB
EC-Lab for windows v11.01 (software)
Internet server v11.00 (firmware)
Command interpretor v11.00 (firmware)
Electrode material : 
Initial state : 
Electrolyte : 
Comments : 
Electrode surface area : 0.001 cm²
Characteristic mass : 0.001 g
Equivalent Weight : 0.000 g/eq.
Density : 0.000 g/cm3
tR (h:m:s)          0:00:0.0000         
dER/dt (mV/h)       0.0                 
dER (mV)            0                   
dtR (s)             0.0000              
dE/dt               10.000              
dE/dt unit          mV/s                
Ei (V)              -1.000              
vs.                 Ref                 
EL (V)              0.100               
vs.                 Ref                 
record              <I>                 
dI                  0.000               
unit dI             µA                  
tI (s)              0.1000              
step percent        100                 
N                   100                 
E range min (V)     -1.100              
E range max (V)     0.200               
I Range             Auto                
I Range min         Unset               
I Range max         Unset               
I Range init        Unset               
Bandwidth           5                   

mode	ox/red	error	control changes	time/s	control/V	Ewe/V	<I>/mA	P/W
2	1	0	0	1.149999970948556E-001	-9.9937767E-001	-9.9951947E-001	-1.337406021356583E-001	1.3367634E-004
2	1	0	1	3.677999907085905E-001	-9.9685150E-001	-9.9686468E-001	-1.439899817948136E-001	1.4353852E-004
2	1	0	0	8.683999780623708E-001	-9.9184555E-001	-9.9188691E-001	-1.532296424107145E-001	1.5198647E-004
2	1	0	1	1.368999965416151E+000	-9.8683935E-001	-9.8687631E-001	-1.567631833996843E-001	1.5470588E-004
2	1	0	0	1.869699952767405E+000	-9.8183274E-001	-9.8187304E-001	-1.574582442714472E-001	1.5460400E-004
2	1	0	0	2.370399940118659E+000	-9.7682542E-001	-9.7686398E-001	-1.566890200278022E-001	1.5306385E-004
2	1	0	1	2.870999927472440E+000	-9.7181952E-001	-9.7185886E-001	-1.552452744458379E-001	1.5087650E-004
2	1	0	0	3.371599914826220E+000	-9.6681345E-001	-9.6686369E-001	-1.534041865588600E-001	1.4832093E-004
2	1	0	1	3.872199902180000E+000	-9.6180731E-001	-9.6182907E-001	-1.513462432626271E-001	1.4556921E-004
2	1	0	0	4.372799889533781E+000	-9.5680165E-001	-9.5681435E-001	-1.491463026113623E-001	1.4270532E-004
2	1	0	1	4.873399876887561E+000	-9.5179534E-001	-9.5182598E-001	-1.468590338949544E-001	1.3978424E-004
2	1	0	1	5.374199864236289E+000	-9.4678754E-001	-9.4683993E-001	-1.445175428464578E-001	1.3683498E-004
2	1	0	0	5.874799851590069E+000	-9.4178146E-001	-9.4183093E-001	-1.421236398968417E-001	1.3385645E-004
2	1	0	1	6.375399838943849E+000	-9.3677533E-001	-9.3681759E-001	-1.397026962862609E-001	1.3087594E-004
2	1	0	0	6.875999826297630E+000	-9.3176949E-001	-9.3181342E-001	-1.372479897865690E-001	1.2788952E-004
2	1	0	1	7.376599813651410E+000	-9.2676342E-001	-9.2680490E-001	-1.347843346623976E-001	1.2491878E-004
2	1	0	0	7.877199801005190E+000	-9.2175758E-001	-9.2180848E-001	-1.322844010281946E-001	1.2194088E-004
2	1	0	1	8.377899788356444E+000	-9.1675031E-001	-9.1678751E-001	-1.297634794116305E-001	1.1896554E-004
2	1	0	1	8.878599775707698E+000	-9.1174340E-001	-9.1178846E-001	-1.272358402770557E-001	1.1601217E-004
2	1	0	0	9.379199763061479E+000	-9.0673751E-001	-9.0678507E-001	-1.247598679178912E-001	1.1313039E-004
2	1	0	1	9.879799750415259E+000	-9.0173131E-001	-9.0177172E-001	-1.222202000565213E-001	1.1021472E-004
2	1	0	0	1.038039973776904E+001	-8.9672554E-001	-8.9676905E-001	-1.196918173920085E-001	1.0733592E-004
2	1	0	1	1.088099972512282E+001	-8.9171934E-001	-8.9175373E-001	-1.171693610078364E-001	1.0448621E-004
2	1	0	0	1.138159971247660E+001	-8.8671345E-001	-8.8676929E-001	-1.146550273481974E-001	1.0167256E-004
2	1	0	1	1.188229969982785E+001	-8.8170636E-001	-8.8174146E-001	-1.121432746722062E-001	9.8881377E-005
2	1	0	1	1.238299968717911E+001	-8.7669933E-001	-8.7675065E-001	-1.096542276436978E-001	9.6139418E-005
2	1	0	0	1.288359967453289E+001	-8.7169367E-001	-8.7175673E-001	-1.071475387219077E-001	9.3406590E-005
2	1	0	1	1.338419966188667E+001	-8.6668742E-001	-8.6674690E-001	-1.046680932861881E-001	9.0720743E-005
2	1	0	0	1.388479964924045E+001	-8.6168158E-001	-8.6174518E-001	-1.022024322054423E-001	8.8072455E-005
2	1	0	1	1.438539963659423E+001	-8.5667539E-001	-8.5674083E-001	-9.975302845709244E-002	8.5462496E-005
2	1	0	0	1.488599962394801E+001	-8.5166907E-001	-8.5174209E-001	-9.733457315867011E-002	8.2903949E-005
2	1	0	0	1.538679961129674E+001	-8.4666145E-001	-8.4672475E-001	-9.493402978138199E-002	8.0382990E-005
2	1	0	1	1.588739959865052E+001	-8.4165525E-001	-8.4170210E-001	-9.254882938354814E-002	7.7898541E-005
2	1	0	0	1.638799958600430E+001	-8.3664954E-001	-8.3670735E-001	-9.019488863336664E-002	7.5466727E-005
2	1	0	1	1.688859957335808E+001	-8.3164328E-001	-8.3172423E-001	-8.786881244620814E-002	7.3082621E-005
2	1	0	0	1.738919956071186E+001	-8.2663727E-001	-8.2671618E-001	-8.560203984943038E-002	7.0768590E-005
2	1	0	1	1.788979954806564E+001	-8.2163131E-001	-8.2169634E-001	-8.330427289032649E-002	6.8450820E-005
2	1	0	0	1.839049953541689E+001	-8.1662422E-001	-8.1668854E-001	-8.104246043866775E-002	6.6186447E-005
2	1	0	0	1.889119952276815E+001	-8.1161749E-001	-8.1168288E-001	-7.880716527453857E-002	6.3966429E-005
2	1	0	1	1.939179951012193E+001	-8.0661130E-001	-8.0667549E-001	-7.661803889965491E-002	6.1805891E-005
2	1	0	0	1.989239949747571E+001	-8.0160540E-001	-8.0164671E-001	-7.443276455720182E-002	5.9668782E-005
2	1	0	1	2.039299948482949E+001	-7.9659927E-001	-7.9666770E-001	-7.230090901205610E-002	5.7599798E-005
2	1	0	0	2.089359947218327E+001	-7.9159313E-001	-7.9164284E-001	-7.017843621028796E-002	5.5556258E-005
2	1	0	1	2.139419945953705E+001	-7.8658742E-001	-7.8662676E-001	-6.809202594973336E-002	5.3563010E-005
2	1	0	0	2.189489944688830E+001	-7.8158027E-001	-7.8162807E-001	-6.604713281468383E-002	5.1624294E-005
2	1	0	0	2.239559943423956E+001	-7.7657336E-001	-7.7662140E-001	-6.401754402762427E-002	4.9717393E-005
2	1	0	1	2.289619942159334E+001	-7.7156723E-001	-7.7160686E-001	-6.203775856346495E-002	4.7868762E-005
2	1	0	0	2.339679940894712E+001	-7.6656097E-001	-7.6660430E-001	-6.006688396551518E-002	4.6047531E-005
2	1	0	1	2.389739939630090E+001	-7.6155525E-001	-7.6158893E-001	-5.815932214927244E-002	4.4293494E-005
2	1	0	0	2.439799938365468E+001	-7.5654918E-001	-7.5657409E-001	-5.628357873494177E-002	4.2582698E-005
2	1	0	1	2.489859937100846E+001	-7.5154334E-001	-7.5157332E-001	-5.441914441626117E-002	4.0899977E-005
2	1	0	1	2.539939935835719E+001	-7.4653518E-001	-7.4657810E-001	-5.260843891388667E-002	3.9276307E-005
2	1	0	0	2.589999934571097E+001	-7.4152905E-001	-7.4155211E-001	-5.082455196519908E-002	3.7689053E-005
2	1	0	1	2.640059933306475E+001	-7.3652327E-001	-7.3654222E-001	-4.907381605956546E-002	3.6144938E-005
2	1	0	0	2.691869931997644E+001	-7.3134214E-001	-7.3136878E-001	-4.733315237344471E-002	3.4617991E-005
2	1	0	0	2.743679930688813E+001	-7.2616124E-001	-7.2618806E-001	-4.560551471054186E-002	3.3118180E-005
2	1	0	1	2.793749929423939E+001	-7.2115409E-001	-7.2117352E-001	-4.397408131929392E-002	3.1712942E-005
2	1	0	1	2.843819928159064E+001	-7.1614730E-001	-7.1617007E-001	-4.237359271382324E-002	3.0346699E-005
2	1	0	0	2.893879926894442E+001	-7.1114111E-001	-7.1116751E-001	-4.081095415681821E-002	2.9023426E-005
2	1	0	1	2.943939925629820E+001	-7.0613497E-001	-7.0616245E-001	-3.928034601774633E-002	2.7738306E-005
2	1	0	0	2.993999924365198E+001	-7.0112920E-001	-7.0115340E-001	-3.779394965744678E-002	2.6499356E-005
2	1	0	1	3.044059923100576E+001	-6.9612312E-001	-6.9615799E-001	-3.633851140001804E-002	2.5297346E-005
2	1	0	0	3.094129921835702E+001	-6.9111615E-001	-6.9114846E-001	-3.492662322421373E-002	2.4139481E-005
2	1	0	0	3.144199920570827E+001	-6.8610907E-001	-6.8614930E-001	-3.354454108248645E-002	2.3016564E-005
2	1	0	1	3.194259919306205E+001	-6.8110293E-001	-6.8112427E-001	-3.220044778947326E-002	2.1932507E-005
2	1	0	0	3.244319918041583E+001	-6.7609710E-001	-6.7614627E-001	-3.089042911901294E-002	2.0886448E-005
2	1	0	1	3.294379916776961E+001	-6.7109096E-001	-6.7112404E-001	-2.961669354232710E-002	1.9876476E-005
2	1	0	0	3.344439915512339E+001	-6.6608518E-001	-6.6612148E-001	-2.838586353220213E-002	1.8908433E-005
2	1	0	1	3.394499914247717E+001	-6.6107899E-001	-6.6110581E-001	-2.718333634689918E-002	1.7971062E-005
2	1	0	0	3.444569912982843E+001	-6.5607196E-001	-6.5610915E-001	-2.601632076388199E-002	1.7069546E-005
2	1	0	0	3.494639911717968E+001	-6.5106499E-001	-6.5110987E-001	-2.489138932732921E-002	1.6207030E-005
2	1	0	1	3.544699910453346E+001	-6.4605892E-001	-6.4608693E-001	-2.380313542291605E-002	1.5378895E-005
2	1	0	0	3.594759909188724E+001	-6.4105308E-001	-6.4109927E-001	-2.274422267749671E-002	1.4581305E-005
2	1	0	1	3.644819907924102E+001	-6.3604695E-001	-6.3611192E-001	-2.171504522384793E-002	1.3813199E-005
2	1	0	0	3.694879906659480E+001	-6.3104105E-001	-6.3110059E-001	-2.072448019296502E-002	1.3079231E-005
2	1	0	1	3.744939905394858E+001	-6.2603486E-001	-6.2609160E-001	-1.977351600979965E-002	1.2380032E-005
2	1	0	0	3.795009904129984E+001	-6.2102789E-001	-6.2108892E-001	-1.884697259036050E-002	1.1705646E-005
2	1	0	0	3.845079902865109E+001	-6.1602098E-001	-6.1609781E-001	-1.795519474509166E-002	1.1062156E-005
2	1	0	1	3.895139901600487E+001	-6.1101490E-001	-6.1107725E-001	-1.709248889503481E-002	1.0444831E-005
2	1	0	0	3.945199900335865E+001	-6.0600901E-001	-6.0606819E-001	-1.626693028005777E-002	9.8588689E-006
2	1	0	1	3.995259899071243E+001	-6.0100281E-001	-6.0106933E-001	-1.547192790126801E-002	9.2997016E-006
2	1	0	0	4.045319897806621E+001	-5.9599674E-001	-5.9606087E-001	-1.469872476306977E-002	8.7613344E-006
2	1	0	1	4.095379896541999E+001	-5.9099078E-001	-5.9105128E-001	-1.396117176614836E-002	8.2517681E-006
2	1	0	1	4.145459895276872E+001	-5.8598292E-001	-5.8604032E-001	-1.325114707174960E-002	7.7657069E-006
2	1	0	0	4.195519894012250E+001	-5.8097708E-001	-5.8102608E-001	-1.257145032568490E-002	7.3043407E-006
2	1	0	1	4.245579892747628E+001	-5.7597077E-001	-5.7603365E-001	-1.192192824803477E-002	6.8674317E-006
2	1	0	0	4.295639891483006E+001	-5.7096475E-001	-5.7101411E-001	-1.129670589324258E-002	6.4505784E-006
2	1	0	1	4.345699890218384E+001	-5.6595868E-001	-5.6601769E-001	-1.069806747565047E-002	6.0552952E-006
2	1	0	0	4.395759888953762E+001	-5.6095272E-001	-5.6101727E-001	-1.012214115554330E-002	5.6786962E-006
2	1	0	1	4.445829887688888E+001	-5.5594581E-001	-5.5601633E-001	-9.571985030861374E-003	5.3221797E-006
2	1	0	1	4.495899886424013E+001	-5.5093879E-001	-5.5099833E-001	-9.043245635699915E-003	4.9828132E-006
2	1	0	0	4.545959885159391E+001	-5.4593277E-001	-5.4598612E-001	-8.542742742707873E-003	4.6642190E-006
2	1	0	1	4.596019883894769E+001	-5.4092658E-001	-5.4098332E-001	-8.064954038352418E-003	4.3630057E-006
2	1	0	0	4.646079882630147E+001	-5.3592062E-001	-5.3597087E-001	-7.608201743610009E-003	4.0777745E-006
2	1	0	1	4.696139881365525E+001	-5.3091460E-001	-5.3096521E-001	-7.174925965570303E-003	3.8096362E-006
2	1	0	0	4.746199880100903E+001	-5.2590871E-001	-5.2595270E-001	-6.759057805042514E-003	3.5549447E-006
2	1	0	1	4.796269878836029E+001	-5.2090168E-001	-5.2095747E-001	-6.364975148384706E-003	3.3158813E-006
2	1	0	1	4.846339877571154E+001	-5.1589471E-001	-5.1595980E-001	-5.987604014519685E-003	3.0893630E-006
2	1	0	0	4.896399876306532E+001	-5.1088870E-001	-5.1095027E-001	-5.633919188620676E-003	2.8786526E-006
2	1	0	1	4.946459875041910E+001	-5.0588256E-001	-5.0596154E-001	-5.295518699864200E-003	2.6793289E-006
2	1	0	0	4.996519873777288E+001	-5.0087661E-001	-5.0093156E-001	-4.974081580846154E-003	2.4916744E-006
2	1	0	1	5.048339872468205E+001	-4.9569473E-001	-4.9575257E-001	-4.658349949827265E-003	2.3093889E-006
2	1	0	0	5.100159871159121E+001	-4.9051264E-001	-4.9057034E-001	-4.360152940331645E-003	2.1389617E-006
2	1	0	1	5.150219869894499E+001	-4.8550665E-001	-4.8554716E-001	-4.087939454849379E-003	1.9848874E-006
2	1	0	0	5.200279868629877E+001	-4.8050049E-001	-4.8053497E-001	-3.832007249553172E-003	1.8414135E-006
2	1	0	1	5.250339867365255E+001	-4.7549444E-001	-4.7553208E-001	-3.588038665429574E-003	1.7062275E-006
2	1	0	0	5.300399866100634E+001	-4.7048858E-001	-4.7052920E-001	-3.359358225225650E-003	1.5806761E-006
2	1	0	1	5.350459864836012E+001	-4.6548253E-001	-4.6551937E-001	-3.142178412663538E-003	1.4627449E-006
2	1	0	0	5.400529863571137E+001	-4.6047559E-001	-4.6049973E-001	-2.936342890635067E-003	1.3521851E-006
2	1	0	0	5.450599862306262E+001	-4.5546857E-001	-4.5551008E-001	-2.744188370916202E-003	1.2500054E-006
2	1	0	1	5.500659861041640E+001	-4.5046243E-001	-4.5049807E-001	-2.560428353006284E-003	1.1534680E-006
2	1	0	0	5.550719859777018E+001	-4.4545642E-001	-4.4547972E-001	-2.388532512027806E-003	1.0640427E-006
2	1	0	1	5.600779858512396E+001	-4.4045052E-001	-4.4049433E-001	-2.227094982692484E-003	9.8102271E-007
2	1	0	0	5.650839857247774E+001	-4.3544456E-001	-4.3546975E-001	-2.074674453077314E-003	9.0345793E-007
2	1	0	1	5.700909855982900E+001	-4.3043748E-001	-4.3045920E-001	-1.931747626206088E-003	8.3153856E-007
2	1	0	1	5.750979854718025E+001	-4.2543051E-001	-4.2545784E-001	-1.797234588148906E-003	7.6464755E-007
2	1	0	0	5.801039853453403E+001	-4.2042446E-001	-4.2047635E-001	-1.672068370314109E-003	7.0306521E-007
2	1	0	1	5.851099852188781E+001	-4.1541845E-001	-4.1547045E-001	-1.554329073197741E-003	6.4577779E-007
2	1	0	0	5.901159850924159E+001	-4.1041249E-001	-4.1044602E-001	-1.442947712555247E-003	5.9225215E-007
2	1	0	1	5.951219849659537E+001	-4.0540650E-001	-4.0544337E-001	-1.339298746794670E-003	5.4300978E-007
2	1	0	0	6.001279848394915E+001	-4.0040046E-001	-4.0045136E-001	-1.242240475020306E-003	4.9745688E-007
2	1	0	1	6.051349847130041E+001	-3.9539343E-001	-3.9542931E-001	-1.152093103903174E-003	4.5557138E-007
2	1	0	1	6.101419845865166E+001	-3.9038640E-001	-3.9041793E-001	-1.066177925384458E-003	4.1625498E-007
2	1	0	0	6.151479844600544E+001	-3.8538042E-001	-3.8543177E-001	-9.868002530650788E-004	3.8034418E-007
2	1	0	1	6.201539843335922E+001	-3.8037446E-001	-3.8042700E-001	-9.120564871485512E-004	3.4697092E-007
2	1	0	0	6.251599842071300E+001	-3.7536845E-001	-3.7542152E-001	-8.438229410020204E-004	3.1678928E-007
2	1	0	1	6.301659840806678E+001	-3.7036243E-001	-3.7039265E-001	-7.791331327636902E-004	2.8858520E-007
2	1	0	0	6.351719839542056E+001	-3.6535630E-001	-3.6540642E-001	-7.188237861279201E-004	2.6266284E-007
2	1	0	1	6.401789838277182E+001	-3.6034933E-001	-3.6040214E-001	-6.629568479632705E-004	2.3893105E-007
2	1	0	1	6.451859837012307E+001	-3.5534239E-001	-3.5537770E-001	-6.113556835921768E-004	2.1726218E-007
2	1	0	0	6.501919835747685E+001	-3.5033637E-001	-3.5037813E-001	-5.622421160636441E-004	1.9699733E-007
2	1	0	1	6.551979834483063E+001	-3.4533042E-001	-3.4536362E-001	-5.168513122969357E-004	1.7850164E-007
2	1	0	0	6.602039833218441E+001	-3.4032434E-001	-3.4034884E-001	-4.751007920096282E-004	1.6170000E-007
2	1	0	1	6.652099831953819E+001	-3.3531830E-001	-3.3533409E-001	-4.357096555182099E-004	1.4610831E-007
2	1	0	0	6.702169830688945E+001	-3.3031130E-001	-3.3032215E-001	-3.986781859659171E-004	1.3169223E-007
2	1	0	0	6.752239829424070E+001	-3.2530436E-001	-3.2536194E-001	-3.653597673332212E-004	1.1887416E-007
2	1	0	1	6.802299828159448E+001	-3.2029834E-001	-3.2033774E-001	-3.339602899567144E-004	1.0698009E-007
2	1	0	0	6.852359826894826E+001	-3.1529233E-001	-3.1533748E-001	-3.047361026359920E-004	9.6094716E-008
2	1	0	1	6.902419825630204E+001	-3.1028625E-001	-3.1032500E-001	-2.778066696810088E-004	8.6210356E-008
2	1	0	0	6.952479824365582E+001	-3.0528024E-001	-3.0533335E-001	-2.526199014549549E-004	7.7133279E-008
2	1	0	1	7.002539823100960E+001	-3.0027419E-001	-3.0031165E-001	-2.292770730341390E-004	6.8854575E-008
2	1	0	0	7.052609821836086E+001	-2.9526722E-001	-2.9529676E-001	-2.077009666894510E-004	6.1333424E-008
2	1	0	0	7.102679820571211E+001	-2.9026029E-001	-2.9030782E-001	-1.884596596967217E-004	5.4711315E-008
2	1	0	1	7.152739819306589E+001	-2.8525421E-001	-2.8529164E-001	-1.702798216951192E-004	4.8579409E-008
2	1	0	0	7.202799818041967E+001	-2.8024819E-001	-2.8028288E-001	-1.535191489601918E-004	4.3028791E-008
2	1	0	1	7.252859816777345E+001	-2.7524218E-001	-2.7528051E-001	-1.380446675856586E-004	3.8001005E-008
2	1	0	0	7.302919815512723E+001	-2.7023610E-001	-2.7027547E-001	-1.233833973309558E-004	3.3347508E-008
2	1	0	1	7.352979814248101E+001	-2.6523012E-001	-2.6527786E-001	-1.101903749189687E-004	2.9231067E-008
2	1	0	0	7.403049812983227E+001	-2.6022315E-001	-2.6026899E-001	-9.815530089051091E-005	2.5546781E-008
2	1	0	0	7.453119811718352E+001	-2.5521615E-001	-2.5524232E-001	-8.724502313196673E-005	2.2268623E-008
2	1	0	1	7.503179810453730E+001	-2.5021011E-001	-2.5023091E-001	-7.651016239726373E-005	1.9145208E-008
2	1	0	0	7.553239809189108E+001	-2.4520414E-001	-2.4526455E-001	-6.742616742514909E-005	1.6537248E-008
2	1	0	1	7.603299807924486E+001	-2.4019808E-001	-2.4027345E-001	-5.858383734611624E-005	1.4076140E-008
2	1	0	0	7.653359806659864E+001	-2.3519209E-001	-2.3525569E-001	-5.034247044067357E-005	1.1843353E-008
2	1	0	1	7.703429805394990E+001	-2.3018508E-001	-2.3025469E-001	-4.306744540508623E-005	9.9164819E-009
2	1	0	1	7.753499804130115E+001	-2.2517809E-001	-2.2525106E-001	-3.608796278963358E-005	8.1288523E-009
2	1	0	0	7.803559802865493E+001	-2.2017209E-001	-2.2024767E-001	-2.944573056398465E-005	6.4853536E-009
2	1	0	1	7.853619801600871E+001	-2.1516606E-001	-2.1522744E-001	-2.357305448666720E-005	5.0735682E-009
2	1	0	0	7.903679800336249E+001	-2.1016005E-001	-2.1023691E-001	-1.775578512056103E-005	3.7329215E-009
2	1	0	1	7.953739799071627E+001	-2.0515405E-001	-2.0522977E-001	-1.237029040915605E-005	2.5387519E-009
2	1	0	0	8.003799797807005E+001	-2.0014802E-001	-2.0021079E-001	-7.761502900854785E-006	1.5539366E-009
2	1	0	1	8.053869796542131E+001	-1.9514100E-001	-1.9520088E-001	-3.442195970625055E-006	6.7191969E-010
2	1	0	1	8.103939795277256E+001	-1.9013405E-001	-1.9017524E-001	4.809342101647383E-007	9.1461776E-011
2	1	0	0	8.153999794012634E+001	-1.8512803E-001	-1.8518788E-001	4.181801484947129E-006	7.7441892E-010
2	1	0	1	8.204059792748012E+001	-1.8012200E-001	-1.8017961E-001	7.478298928023677E-006	1.3474369E-009
2	1	0	0	8.254119791483390E+001	-1.7511599E-001	-1.7516148E-001	1.043575317713730E-005	1.8279420E-009
2	1	0	1	8.304179790218768E+001	-1.7010996E-001	-1.7015803E-001	1.303079117471646E-005	2.2172937E-009
2	1	0	0	8.354239788954146E+001	-1.6510394E-001	-1.6515073E-001	1.551029129396521E-005	2.5615359E-009
2	1	0	0	8.404319787689019E+001	-1.6009600E-001	-1.6014096E-001	1.789618100196975E-005	2.8659117E-009
2	1	0	1	8.454379786424397E+001	-1.5508999E-001	-1.5512547E-001	2.010881580464879E-005	3.1193894E-009
2	1	0	0	8.504439785159775E+001	-1.5008394E-001	-1.5012594E-001	2.254624946400975E-005	3.3847769E-009
2	1	0	1	8.554499783895153E+001	-1.4507793E-001	-1.4512220E-001	2.455606639921746E-005	3.5636303E-009
2	1	0	0	8.604559782630531E+001	-1.4007190E-001	-1.4009619E-001	2.655041518705801E-005	3.7196120E-009
2	1	0	1	8.654619781365909E+001	-1.3506587E-001	-1.3508543E-001	2.830762886291545E-005	3.8239483E-009
2	1	0	0	8.704689780101035E+001	-1.3005884E-001	-1.3006800E-001	2.990030343531097E-005	3.8890726E-009
2	1	0	0	8.754759778836160E+001	-1.2505189E-001	-1.2506473E-001	3.152878520109508E-005	3.9431391E-009
2	1	0	1	8.804819777571538E+001	-1.2004586E-001	-1.2006564E-001	3.281394910675372E-005	3.9398280E-009
2	1	0	0	8.854879776306916E+001	-1.1503986E-001	-1.1505428E-001	3.401704046713169E-005	3.9138062E-009
2	1	0	1	8.904939775042294E+001	-1.1003383E-001	-1.1006619E-001	3.532384083791533E-005	3.8879606E-009
2	1	0	0	8.954999773777672E+001	-1.0502780E-001	-1.0504650E-001	3.646428396373432E-005	3.8304453E-009
2	1	0	1	9.005059772513050E+001	-1.0002182E-001	-1.0002515E-001	3.761434262766712E-005	3.7623806E-009
2	1	0	0	9.055129771248176E+001	-9.5014825E-002	-9.5024735E-002	3.858776837023706E-005	3.6667924E-009
2	1	0	0	9.105199769983301E+001	-9.0007812E-002	-9.0025611E-002	3.958628810986098E-005	3.5637797E-009
2	1	0	1	9.155259768718679E+001	-8.5001819E-002	-8.5041955E-002	4.033460250004706E-005	3.4301335E-009
2	1	0	0	9.205319767454057E+001	-7.9995804E-002	-8.0022924E-002	4.116109537173650E-005	3.2938312E-009
2	1	0	1	9.255379766189435E+001	-7.4989744E-002	-7.5002216E-002	4.188320565341207E-005	3.1413332E-009
2	1	0	0	9.305439764924813E+001	-6.9983728E-002	-6.9997765E-002	4.262463502843804E-005	2.9836291E-009
2	1	0	1	9.355499763660191E+001	-6.4977713E-002	-6.4995378E-002	4.330870832817366E-005	2.8148659E-009
2	1	0	0	9.405569762395317E+001	-5.9970748E-002	-5.9985884E-002	4.396194401052120E-005	2.6370961E-009
2	1	0	0	9.455639761130442E+001	-5.4963727E-002	-5.4981146E-002	4.464463183619797E-005	2.4546130E-009
2	1	0	1	9.505699759865820E+001	-4.9957708E-002	-4.9980480E-002	4.531583192175727E-005	2.2649072E-009
2	1	0	0	9.555759758601198E+001	-4.4951707E-002	-4.4981852E-002	4.589834831958826E-005	2.0645927E-009
2	1	0	1	9.605819757336576E+001	-3.9945696E-002	-3.9964352E-002	4.650530822529014E-005	1.8585545E-009
2	1	0	0	9.655879756071954E+001	-3.4939688E-002	-3.4967721E-002	4.700897422852692E-005	1.6437967E-009
2	1	0	1	9.705949754807079E+001	-2.9932667E-002	-2.9958049E-002	4.747212377535452E-005	1.4221722E-009
2	1	0	1	9.756019753542205E+001	-2.4925714E-002	-2.4956837E-002	4.805098534405364E-005	1.1992006E-009
2	1	0	0	9.806079752277583E+001	-1.9919684E-002	-1.9943327E-002	4.848435834448597E-005	9.6693942E-010
2	1	0	1	9.856139751012961E+001	-1.4913655E-002	-1.4949725E-002	4.897770702201761E-005	7.3220324E-010
2	1	0	0	9.906199749748339E+001	-9.9076508E-003	-9.9524753E-003	4.943279030874268E-005	4.9197862E-010
2	1	0	1	9.956259748483717E+001	-4.9016438E-003	-4.9517709E-003	4.990274840725490E-005	2.4710697E-010
2	1	0	0	1.000631974721910E+002	1.0480962E-004	6.1305676E-005	5.042011175077917E-005	3.0910391E-012
2	1	0	1	1.005638974595422E+002	5.1113423E-003	5.0750128E-003	5.082205466771986E-005	2.5792257E-010
2	1	0	1	1.010645974468935E+002	1.0118318E-002	1.0075350E-002	5.131297766307826E-005	5.1699622E-010
2	1	0	0	1.015651974342472E+002	1.5124327E-002	1.5096434E-002	5.175808780357696E-005	7.8136259E-010
2	1	0	1	1.020657974216010E+002	2.0130327E-002	2.0108115E-002	5.221441134375401E-005	1.0499334E-009
2	1	0	0	1.025663974089548E+002	2.5136335E-002	2.5115257E-002	5.268630542869105E-005	1.3232301E-009
2	1	0	1	1.030669973963086E+002	3.0142348E-002	3.0119998E-002	5.319734656515250E-005	1.6023040E-009
2	1	0	0	1.035675973836624E+002	3.5148323E-002	3.5117347E-002	5.362137631340232E-005	1.8830404E-009
2	1	0	1	1.040682973710136E+002	4.0155262E-002	4.0127274E-002	5.407638454018129E-005	2.1699378E-009
2	1	0	1	1.045689973583649E+002	4.5162253E-002	4.5124635E-002	5.467092216088242E-005	2.4670055E-009
2	1	0	0	1.050695973457186E+002	5.0168257E-002	5.0126869E-002	5.529614422105224E-005	2.7718225E-009
2	1	0	1	1.055701973330724E+002	5.5174258E-002	5.5141516E-002	5.592198511058768E-005	3.0836231E-009
2	1	0	0	1.060707973204262E+002	6.0180265E-002	6.0148671E-002	5.650994667924449E-005	3.3989982E-009
2	1	0	1	1.065713973077800E+002	6.5186262E-002	6.5147169E-002	5.730167123264797E-005	3.7330419E-009
2	1	0	0	1.070720972951312E+002	7.0193224E-002	7.0141278E-002	5.779886920204532E-005	4.0540864E-009
2	1	0	0	1.075727972824825E+002	7.5200185E-002	7.5171806E-002	5.869601818593573E-005	4.4122856E-009
2	1	0	1	1.080733972698363E+002	8.0206156E-002	8.0182530E-002	5.943544619169175E-005	4.7656843E-009
2	1	0	0	1.085739972571901E+002	8.5212179E-002	8.5183263E-002	6.016022700791851E-005	5.1246443E-009
2	1	0	1	1.090745972445438E+002	9.0218179E-002	9.0193495E-002	6.080177093045357E-005	5.4839244E-009
2	1	0	0	1.095751972318976E+002	9.5224150E-002	9.5198102E-002	6.166493703686077E-005	5.8703851E-009
2	1	0	1	1.099381972227275E+002	9.8854296E-002	9.8827846E-002	6.236507214694292E-005	6.1634058E-009
2	1	0	1	1.100503972198931E+002	1.0000581E-001	1.0003521E-001	6.622249893553089E-005	6.6245818E-009