EC-Lab ASCII FILE
Nb header lines : 55                          

I-V Characterization

Run on channel : 1 (SN 6514)
User : 
CE vs. WE compliance from -10 V to 10 V
Electrode connection : standard
Ewe ctrl range : min = -1.10 V, max = 0.20 V
Safety Limits :
	Do not start on E overload
Acquisition started on : 06/15/2016 19:27:33
Saved on :
	File : B125-G54-UN-G-D1GB-C11 BW 10mVs_C01.mpr
	Directory : E:\EC-Lab measurements\B125-G54-UN-G-D1GB\
	Host : 10.0.2.15
Device : VSP (SN 0295)
Address : USB
EC-Lab for windows v11.01 (software)
Internet server v11.00 (firmware)
Command interpretor v11.00 (firmware)
Electrode material : 
Initial state : 
Electrolyte : 
Comments : 
Electrode surface area : 0.001 cm²
Characteristic mass : 0.001 g
Equivalent Weight : 0.000 g/eq.
Density : 0.000 g/cm3
tR (h:m:s)          0:00:0.0000         
dER/dt (mV/h)       0.0                 
dER (mV)            0                   
dtR (s)             0.0000              
dE/dt               10.000              
dE/dt unit          mV/s                
Ei (V)              -1.000              
vs.                 Ref                 
EL (V)              0.100               
vs.                 Ref                 
record              <I>                 
dI                  0.000               
unit dI             µA                  
tI (s)              0.1000              
step percent        100                 
N                   100                 
E range min (V)     -1.100              
E range max (V)     0.200               
I Range             Auto                
I Range min         Unset               
I Range max         Unset               
I Range init        Unset               
Bandwidth           5                   

mode	ox/red	error	control changes	time/s	control/V	Ewe/V	<I>/mA	P/W
2	1	0	0	1.449999963369919E-001	-9.9912035E-001	-9.9933130E-001	-2.001543726921085E+000	2.0002052E-003
2	1	0	1	3.977999899507267E-001	-9.9659473E-001	-9.9668050E-001	-2.109444849183244E+000	2.1024426E-003
2	1	0	0	8.983999773045070E-001	-9.9158841E-001	-9.9167818E-001	-2.188670905070943E+000	2.1704573E-003
2	1	0	1	1.398999964658287E+000	-9.8658270E-001	-9.8668069E-001	-2.179693280662466E+000	2.1506613E-003
2	1	0	1	1.899799952007015E+000	-9.8157448E-001	-9.8168439E-001	-2.122805608363183E+000	2.0839251E-003
2	1	0	0	2.400399939360796E+000	-9.7656864E-001	-9.7666854E-001	-2.046540901876519E+000	1.9987922E-003
2	1	0	1	2.900999926714576E+000	-9.7156250E-001	-9.7165459E-001	-1.968005543134463E+000	1.9122217E-003
2	1	0	0	3.401599914068356E+000	-9.6655643E-001	-9.6664840E-001	-1.894111815869881E+000	1.8309401E-003
2	1	0	1	3.902199901422136E+000	-9.6155053E-001	-9.6163368E-001	-1.830536878549434E+000	1.7603060E-003
2	1	0	0	4.402799888775917E+000	-9.5654434E-001	-9.5660460E-001	-1.772591635219193E+000	1.6956693E-003
2	1	0	1	4.903399876129697E+000	-9.5153862E-001	-9.5162976E-001	-1.720640761308134E+000	1.6374129E-003
2	1	0	0	5.403999863483477E+000	-9.4653225E-001	-9.4662279E-001	-1.673731000659714E+000	1.5843919E-003
2	1	0	1	5.904699850834731E+000	-9.4152558E-001	-9.4161004E-001	-1.631637177652262E+000	1.5363659E-003
2	1	0	1	6.405399838185986E+000	-9.3651843E-001	-9.3661100E-001	-1.589894834937681E+000	1.4891130E-003
2	1	0	0	6.905999825539766E+000	-9.3151265E-001	-9.3160903E-001	-1.550055415060541E+000	1.4440456E-003
2	1	0	1	7.406599812893546E+000	-9.2650646E-001	-9.2660046E-001	-1.513113454976093E+000	1.4020517E-003
2	1	0	0	7.907199800247326E+000	-9.2150074E-001	-9.2158180E-001	-1.477701886748758E+000	1.3618232E-003
2	1	0	1	8.407799787601107E+000	-9.1649449E-001	-9.1656727E-001	-1.443544586643508E+000	1.3231058E-003
2	1	0	0	8.908399774954887E+000	-9.1148865E-001	-9.1158295E-001	-1.410101892159704E+000	1.2854248E-003
2	1	0	1	9.408999762308667E+000	-9.0648234E-001	-9.0657967E-001	-1.377841039992134E+000	1.2491227E-003
2	1	0	0	9.909599749662448E+000	-9.0147662E-001	-9.0155423E-001	-1.347788430822451E+000	1.2151044E-003
2	1	0	1	1.041029973701370E+001	-8.9646935E-001	-8.9655763E-001	-1.318033802848964E+000	1.1816933E-003
2	1	0	1	1.091099972436496E+001	-8.9146256E-001	-8.9154953E-001	-1.287475080172293E+000	1.1478479E-003
2	1	0	0	1.141159971171874E+001	-8.8645637E-001	-8.8654792E-001	-1.258912268962824E+000	1.1160860E-003
2	1	0	1	1.191219969907252E+001	-8.8145047E-001	-8.8153923E-001	-1.229006221229426E+000	1.0834172E-003
2	1	0	0	1.241279968642630E+001	-8.7644446E-001	-8.7653702E-001	-1.197153594612084E+000	1.0493494E-003
2	1	0	1	1.291339967378008E+001	-8.7143832E-001	-8.7154394E-001	-1.167477849537829E+000	1.0175082E-003
2	1	0	0	1.341399966113386E+001	-8.6643255E-001	-8.6655253E-001	-1.139205289843854E+000	9.8718121E-004
2	1	0	1	1.391459964848764E+001	-8.6142629E-001	-8.6153281E-001	-1.111951625185178E+000	9.5798279E-004
2	1	0	0	1.441519963584142E+001	-8.5642052E-001	-8.5652202E-001	-1.084510991463873E+000	9.2890754E-004
2	1	0	0	1.491599962319015E+001	-8.5141236E-001	-8.5151565E-001	-1.060831182333553E+000	9.0331433E-004
2	1	0	1	1.541659961054393E+001	-8.4640652E-001	-8.4650683E-001	-1.037910839921857E+000	8.7859860E-004
2	1	0	0	1.591719959789771E+001	-8.4140033E-001	-8.4148508E-001	-1.005350950908155E+000	8.4598782E-004
2	1	0	1	1.641779958525149E+001	-8.3639449E-001	-8.3649254E-001	-9.765259867587570E-001	8.1685669E-004
2	1	0	0	1.691839957260527E+001	-8.3138829E-001	-8.3150113E-001	-9.499224573135692E-001	7.8986160E-004
2	1	0	1	1.741899955995905E+001	-8.2638246E-001	-8.2648885E-001	-9.235389757424053E-001	7.6329469E-004
2	1	0	0	1.791959954731283E+001	-8.2137632E-001	-8.2146209E-001	-8.938629538008334E-001	7.3427451E-004
2	1	0	1	1.842019953466661E+001	-8.1637043E-001	-8.1646675E-001	-8.670835124387786E-001	7.0794486E-004
2	1	0	0	1.892089952201786E+001	-8.1136316E-001	-8.1145060E-001	-8.411092270386762E-001	6.8251858E-004
2	1	0	0	1.942159950936912E+001	-8.0635649E-001	-8.0643815E-001	-8.144247884899531E-001	6.5678323E-004
2	1	0	1	1.992219949672290E+001	-8.0135030E-001	-8.0142969E-001	-7.883634967096995E-001	6.3181791E-004
2	1	0	0	2.042279948407668E+001	-7.9634428E-001	-7.9643089E-001	-7.626284978597118E-001	6.0738088E-004
2	1	0	1	2.092339947143046E+001	-7.9133826E-001	-7.9142439E-001	-7.355075697436710E-001	5.8209861E-004
2	1	0	0	2.142399945878424E+001	-7.8633225E-001	-7.8642058E-001	-7.093308386714785E-001	5.5783236E-004
2	1	0	1	2.192459944613802E+001	-7.8132635E-001	-7.8140777E-001	-6.834450621328010E-001	5.3404929E-004
2	1	0	0	2.242519943349180E+001	-7.7632010E-001	-7.7640480E-001	-6.587735336406837E-001	5.1147491E-004
2	1	0	1	2.292579942084558E+001	-7.7131438E-001	-7.7138847E-001	-6.336945738976638E-001	4.8882468E-004
2	1	0	0	2.342649940819683E+001	-7.6630723E-001	-7.6637787E-001	-6.085422228280741E-001	4.6637328E-004
2	1	0	0	2.392719939554809E+001	-7.6130038E-001	-7.6137376E-001	-5.827145865670929E-001	4.4366359E-004
2	1	0	1	2.442779938290187E+001	-7.5629419E-001	-7.5637001E-001	-5.562449582782456E-001	4.2072701E-004
2	1	0	0	2.492839937025565E+001	-7.5128835E-001	-7.5135392E-001	-5.313681575251152E-001	3.9924556E-004
2	1	0	1	2.542899935760943E+001	-7.4628228E-001	-7.4634808E-001	-5.063883246983121E-001	3.7794196E-004
2	1	0	0	2.594709934452112E+001	-7.4110126E-001	-7.4114132E-001	-4.813000429404770E-001	3.5671136E-004
2	1	0	0	2.646519933143281E+001	-7.3592019E-001	-7.3594683E-001	-4.563858600191670E-001	3.3587572E-004
2	1	0	1	2.696589931878407E+001	-7.3091340E-001	-7.3093241E-001	-4.321237965551887E-001	3.1585328E-004
2	1	0	1	2.746659930613532E+001	-7.2590625E-001	-7.2593933E-001	-4.080799655976968E-001	2.9624131E-004
2	1	0	0	2.796719929348910E+001	-7.2090036E-001	-7.2092921E-001	-3.842684948241075E-001	2.7703037E-004
2	1	0	1	2.846779928084288E+001	-7.1589416E-001	-7.1592933E-001	-3.601496603528691E-001	2.5784172E-004
2	1	0	0	2.896839926819666E+001	-7.1088833E-001	-7.1093506E-001	-3.366136583115891E-001	2.3931045E-004
2	1	0	1	2.946899925555044E+001	-7.0588207E-001	-7.0593840E-001	-3.133626958465117E-001	2.2121477E-004
2	1	0	0	2.996959924290422E+001	-7.0087612E-001	-7.0091134E-001	-2.900018389319409E-001	2.0326558E-004
2	1	0	1	3.047019923025800E+001	-6.9587004E-001	-6.9591439E-001	-2.666819836908365E-001	1.8558784E-004
2	1	0	0	3.097079921761178E+001	-6.9086397E-001	-6.9089943E-001	-2.439974562288407E-001	1.6857771E-004
2	1	0	0	3.147159920496051E+001	-6.8585616E-001	-6.8589121E-001	-2.211877713210313E-001	1.5171074E-004
2	1	0	1	3.197219919231429E+001	-6.8085003E-001	-6.8088019E-001	-1.987849114410740E-001	1.3534870E-004
2	1	0	0	3.247279917966807E+001	-6.7584419E-001	-6.7588413E-001	-1.756774976312299E-001	1.1873763E-004
2	1	0	1	3.297339916702185E+001	-6.7083806E-001	-6.7087299E-001	-1.534363301886459E-001	1.0293629E-004
2	1	0	0	3.347399915437563E+001	-6.6583216E-001	-6.6586417E-001	-1.313692621067402E-001	8.7474087E-005
2	1	0	1	3.397459914172941E+001	-6.6082603E-001	-6.6086149E-001	-1.092062496010038E-001	7.2170202E-005
2	1	0	0	3.447519912908319E+001	-6.5582013E-001	-6.5585846E-001	-8.805456560339664E-002	5.7751331E-005
2	1	0	1	3.497579911643697E+001	-6.5081400E-001	-6.5086824E-001	-6.686417383140864E-002	4.3519765E-005
2	1	0	0	3.549399910334614E+001	-6.4563227E-001	-6.4567727E-001	-4.394835651572862E-002	2.8376455E-005
2	1	0	1	3.601219909025531E+001	-6.4045006E-001	-6.4048022E-001	-2.130203227771499E-002	1.3643530E-005
2	1	0	0	3.651279907760909E+001	-6.3544410E-001	-6.3550919E-001	-1.717090038826334E-003	1.0912265E-006
2	1	0	1	3.701339906496287E+001	-6.3043797E-001	-6.3051522E-001	1.971629934015279E-002	1.2431427E-005
2	1	0	0	3.751399905231665E+001	-6.2543207E-001	-6.2549204E-001	4.025009050243467E-002	2.5176110E-005
2	1	0	1	3.801459903967043E+001	-6.2042594E-001	-6.2048739E-001	6.085777245804722E-002	3.7761482E-005
2	1	0	0	3.851519902702421E+001	-6.1541998E-001	-6.1547869E-001	8.103888895786437E-002	4.9877708E-005
2	1	0	1	3.903339901393338E+001	-6.1023796E-001	-6.1028939E-001	1.012318836654660E-001	6.1780745E-005
2	1	0	0	3.955159900084254E+001	-6.0505587E-001	-6.0511643E-001	1.217986752461213E-001	7.3702380E-005
2	1	0	1	4.005219898819632E+001	-6.0004979E-001	-6.0010731E-001	1.424211582013977E-001	8.5467982E-005
2	1	0	0	4.055279897555010E+001	-5.9504384E-001	-5.9510785E-001	1.603894546733606E-001	9.5449024E-005
2	1	0	1	4.105339896290388E+001	-5.9003782E-001	-5.9009415E-001	1.799661103620442E-001	1.0619695E-004
2	1	0	0	4.155399895025766E+001	-5.8503175E-001	-5.8508116E-001	1.990152742935012E-001	1.1644009E-004
2	1	0	1	4.205459893761144E+001	-5.8002585E-001	-5.8007050E-001	2.180061333170505E-001	1.2645892E-004
2	1	0	0	4.255529892496270E+001	-5.7501888E-001	-5.7508206E-001	2.364502699803520E-001	1.3597831E-004
2	1	0	0	4.305599891231395E+001	-5.7001191E-001	-5.7007045E-001	2.531012026872443E-001	1.4428551E-004
2	1	0	1	4.355659889966773E+001	-5.6500578E-001	-5.6507111E-001	2.716223569134599E-001	1.5348595E-004
2	1	0	0	4.405719888702151E+001	-5.5999982E-001	-5.6007993E-001	2.901663656891147E-001	1.6251636E-004
2	1	0	1	4.455779887437529E+001	-5.5499381E-001	-5.5506998E-001	3.087551380651545E-001	1.7138071E-004
2	1	0	0	4.505839886172907E+001	-5.4998779E-001	-5.5005383E-001	3.253911444580055E-001	1.7898265E-004
2	1	0	1	4.555899884908285E+001	-5.4498172E-001	-5.4504710E-001	3.427727629907436E-001	1.8682730E-004
2	1	0	0	4.605959883643663E+001	-5.3997576E-001	-5.4002702E-001	3.592373627106316E-001	1.9399788E-004
2	1	0	1	4.656019882379042E+001	-5.3496975E-001	-5.3503984E-001	3.749910284378990E-001	2.0063514E-004
2	1	0	0	4.706089881114167E+001	-5.2996272E-001	-5.3001422E-001	3.922507160255994E-001	2.0789845E-004
2	1	0	0	4.756159879849292E+001	-5.2495575E-001	-5.2499723E-001	4.088203627156172E-001	2.1462956E-004
2	1	0	1	4.806219878584670E+001	-5.1994967E-001	-5.2001846E-001	4.233082010625044E-001	2.2012807E-004
2	1	0	0	4.856279877320048E+001	-5.1494366E-001	-5.1500708E-001	4.384582951010505E-001	2.2580913E-004
2	1	0	1	4.906339876055426E+001	-5.0993764E-001	-5.0999540E-001	4.536163395125028E-001	2.3134224E-004
2	1	0	0	4.956399874790804E+001	-5.0493157E-001	-5.0497741E-001	4.677926544345161E-001	2.3622472E-004
2	1	0	1	5.006459873526182E+001	-4.9992555E-001	-4.9998847E-001	4.824931336811297E-001	2.4124100E-004
2	1	0	0	5.056519872261561E+001	-4.9491951E-001	-4.9498779E-001	4.976740688365018E-001	2.4634259E-004
2	1	0	1	5.106579870996939E+001	-4.8991346E-001	-4.8995864E-001	5.110801152846225E-001	2.5040811E-004
2	1	0	1	5.156659869731811E+001	-4.8490554E-001	-4.8495933E-001	5.252596164679213E-001	2.5472956E-004
2	1	0	0	5.206719868467189E+001	-4.7989962E-001	-4.7993425E-001	5.376620711825826E-001	2.5804245E-004
2	1	0	1	5.256779867202567E+001	-4.7489360E-001	-4.7493955E-001	5.522067109837732E-001	2.6226480E-004
2	1	0	0	5.306839865937945E+001	-4.6988761E-001	-4.6992153E-001	5.649767116637960E-001	2.6549472E-004
2	1	0	1	5.356899864673323E+001	-4.6488157E-001	-4.6491852E-001	5.781642849639370E-001	2.6879928E-004
2	1	0	0	5.406959863408701E+001	-4.5987558E-001	-4.5992157E-001	5.912592385183331E-001	2.7193286E-004
2	1	0	1	5.457019862144080E+001	-4.5486960E-001	-4.5490626E-001	6.012478712548877E-001	2.7351142E-004
2	1	0	0	5.507079860879458E+001	-4.4986364E-001	-4.4989467E-001	6.134246316212533E-001	2.7597646E-004
2	1	0	1	5.557149859614583E+001	-4.4485655E-001	-4.4489297E-001	6.251495903223514E-001	2.7812467E-004
2	1	0	1	5.607219858349708E+001	-4.3984959E-001	-4.3989879E-001	6.363465377065296E-001	2.7992806E-004
2	1	0	0	5.657279857085086E+001	-4.3484360E-001	-4.3487400E-001	6.485992883244958E-001	2.8205896E-004
2	1	0	1	5.707339855820464E+001	-4.2983758E-001	-4.2986366E-001	6.600644506046738E-001	2.8373773E-004
2	1	0	0	5.757399854555842E+001	-4.2483151E-001	-4.2486820E-001	6.690190526172985E-001	2.8424492E-004
2	1	0	1	5.807459853291221E+001	-4.1982549E-001	-4.1986954E-001	6.787746193661892E-001	2.8499679E-004
2	1	0	0	5.857519852026599E+001	-4.1481942E-001	-4.1485292E-001	6.895521502264845E-001	2.8606271E-004
2	1	0	1	5.907579850761977E+001	-4.0981340E-001	-4.0983197E-001	6.979437527179089E-001	2.8603966E-004
2	1	0	0	5.957639849497355E+001	-4.0480742E-001	-4.0484357E-001	7.089252336761636E-001	2.8700382E-004
2	1	0	1	6.007709848232480E+001	-3.9980039E-001	-3.9984736E-001	7.192476699585999E-001	2.8758927E-004
2	1	0	1	6.057779846967605E+001	-3.9479345E-001	-3.9482725E-001	7.281478487852233E-001	2.8749261E-004
2	1	0	0	6.107839845702983E+001	-3.8978744E-001	-3.8982132E-001	7.361003293183330E-001	2.8694762E-004
2	1	0	1	6.157899844438361E+001	-3.8478145E-001	-3.8482884E-001	7.423155997236641E-001	2.8566446E-004
2	1	0	0	6.207959843173740E+001	-3.7977549E-001	-3.7981418E-001	7.521334625219485E-001	2.8567095E-004
2	1	0	1	6.258019841909118E+001	-3.7476948E-001	-3.7481603E-001	7.614517083593135E-001	2.8540430E-004
2	1	0	0	6.308079840644496E+001	-3.6976346E-001	-3.6980534E-001	7.680048082648749E-001	2.8401229E-004
2	1	0	1	6.358139839379874E+001	-3.6475745E-001	-3.6479250E-001	7.758227281507573E-001	2.8301432E-004
2	1	0	0	6.408199838115252E+001	-3.5975143E-001	-3.5980111E-001	7.850477617114411E-001	2.8246106E-004
2	1	0	0	6.458279836850124E+001	-3.5474345E-001	-3.5478279E-001	7.917490372880991E-001	2.8089894E-004
2	1	0	1	6.508339835585502E+001	-3.4973747E-001	-3.4976718E-001	7.970453042708971E-001	2.7878030E-004
2	1	0	0	6.558399834320880E+001	-3.4473145E-001	-3.4476590E-001	8.032523968183833E-001	2.7693404E-004
2	1	0	1	6.608459833056259E+001	-3.3972535E-001	-3.3975348E-001	8.107494283552512E-001	2.7545495E-004
2	1	0	0	6.658519831791637E+001	-3.3471936E-001	-3.3473814E-001	8.176696023304846E-001	2.7370520E-004
2	1	0	1	6.708579830527015E+001	-3.2971334E-001	-3.2973081E-001	8.244994915554675E-001	2.7186290E-004
2	1	0	0	6.758639829262393E+001	-3.2470733E-001	-3.2474157E-001	8.303815171716700E-001	2.6965939E-004
2	1	0	1	6.808699827997771E+001	-3.1970128E-001	-3.1975859E-001	8.357209511073393E-001	2.6722896E-004
2	1	0	0	6.858759826733149E+001	-3.1469524E-001	-3.1473434E-001	8.418284510503087E-001	2.6495231E-004
2	1	0	0	6.908839825468021E+001	-3.0968726E-001	-3.0972913E-001	8.454148405141595E-001	2.6184961E-004
2	1	0	1	6.958899824203399E+001	-3.0468124E-001	-3.0470306E-001	8.520770966466529E-001	2.5963050E-004
2	1	0	0	7.008959822938778E+001	-2.9967532E-001	-2.9971641E-001	8.583064531786375E-001	2.5724852E-004
2	1	0	1	7.059019821674156E+001	-2.9466924E-001	-2.9468912E-001	8.622681020844523E-001	2.5410103E-004
2	1	0	0	7.109079820409534E+001	-2.8966326E-001	-2.8969166E-001	8.673871689274875E-001	2.5127482E-004
2	1	0	1	7.159139819144912E+001	-2.8465727E-001	-2.8469983E-001	8.717208904976843E-001	2.4817878E-004
2	1	0	0	7.209199817880290E+001	-2.7965122E-001	-2.7968621E-001	8.742608238577034E-001	2.4451871E-004
2	1	0	1	7.259259816615668E+001	-2.7464518E-001	-2.7466887E-001	8.805945354539713E-001	2.4187191E-004
2	1	0	0	7.309329815350793E+001	-2.6963818E-001	-2.6965857E-001	8.867692105752631E-001	2.3912491E-004
2	1	0	0	7.359399814085918E+001	-2.6463118E-001	-2.6466215E-001	8.886734955071445E-001	2.3519824E-004
2	1	0	1	7.409459812821297E+001	-2.5962514E-001	-2.5965148E-001	8.930503172024906E-001	2.3188184E-004
2	1	0	0	7.459519811556675E+001	-2.5461918E-001	-2.5465131E-001	8.995142834483687E-001	2.2906248E-004
2	1	0	1	7.509579810292053E+001	-2.4961312E-001	-2.4963763E-001	9.043873792252413E-001	2.2576912E-004
2	1	0	0	7.559639809027431E+001	-2.4460712E-001	-2.4467115E-001	9.058534922209027E-001	2.2163622E-004
2	1	0	1	7.609699807762809E+001	-2.3960114E-001	-2.3966774E-001	9.084751954088439E-001	2.1773220E-004
2	1	0	0	7.659759806498187E+001	-2.3459511E-001	-2.3464331E-001	9.133128079201267E-001	2.1430274E-004
2	1	0	1	7.709819805233565E+001	-2.2958909E-001	-2.2964428E-001	9.175587801194256E-001	2.1071213E-004
2	1	0	0	7.759889803968690E+001	-2.2458214E-001	-2.2463183E-001	9.197492427946870E-001	2.0660496E-004
2	1	0	0	7.809959802703816E+001	-2.1957511E-001	-2.1963467E-001	9.202168821500916E-001	2.0211152E-004
2	1	0	1	7.860019801439194E+001	-2.1456912E-001	-2.1463634E-001	9.252808088587039E-001	1.9859889E-004
2	1	0	0	7.910079800174572E+001	-2.0956311E-001	-2.0962745E-001	9.291561738347340E-001	1.9477664E-004
2	1	0	1	7.960139798909950E+001	-2.0455706E-001	-2.0461515E-001	9.297363343690233E-001	1.9023813E-004
2	1	0	0	8.010199797645328E+001	-1.9955106E-001	-1.9960795E-001	9.327691571797629E-001	1.8618815E-004
2	1	0	1	8.060259796380706E+001	-1.9454502E-001	-1.9459574E-001	9.397025195660689E-001	1.8286210E-004
2	1	0	0	8.110319795116084E+001	-1.8953902E-001	-1.8958160E-001	9.400179732644691E-001	1.7821012E-004
2	1	0	1	8.160379793851462E+001	-1.8453301E-001	-1.8458611E-001	9.413059342460669E-001	1.7375199E-004
2	1	0	1	8.210459792586335E+001	-1.7952508E-001	-1.7957866E-001	9.459785470975515E-001	1.6987756E-004
2	1	0	0	8.260519791321713E+001	-1.7451905E-001	-1.7455408E-001	9.469829497001268E-001	1.6529973E-004
2	1	0	1	8.310579790057091E+001	-1.6951305E-001	-1.6955930E-001	9.503071815370383E-001	1.6113342E-004
2	1	0	0	8.360639788792469E+001	-1.6450705E-001	-1.6454163E-001	9.516994722746510E-001	1.5659418E-004
2	1	0	1	8.410699787527847E+001	-1.5950100E-001	-1.5953693E-001	9.556514409569257E-001	1.5246170E-004
2	1	0	0	8.460759786263225E+001	-1.5449497E-001	-1.5451375E-001	9.570928623237425E-001	1.4788400E-004
2	1	0	1	8.510819784998603E+001	-1.4948894E-001	-1.4951049E-001	9.559170090982638E-001	1.4291961E-004
2	1	0	0	8.560879783733981E+001	-1.4448291E-001	-1.4451109E-001	9.591027909776724E-001	1.3860098E-004
2	1	0	1	8.610949782469106E+001	-1.3947591E-001	-1.3948347E-001	9.640595182097815E-001	1.3447036E-004
2	1	0	1	8.661019781204232E+001	-1.3446896E-001	-1.3448244E-001	9.671098034526113E-001	1.3005928E-004
2	1	0	0	8.711079779939610E+001	-1.2946291E-001	-1.2947614E-001	9.672222714744967E-001	1.2523221E-004
2	1	0	1	8.761139778674988E+001	-1.2445689E-001	-1.2448761E-001	9.685061464950495E-001	1.2056701E-004
2	1	0	0	8.811199777410366E+001	-1.1945086E-001	-1.1946586E-001	9.702379883165353E-001	1.1591031E-004
2	1	0	1	8.861259776145744E+001	-1.1444487E-001	-1.1445823E-001	9.724791274635578E-001	1.1130824E-004
2	1	0	0	8.911319774881122E+001	-1.0943886E-001	-1.0944770E-001	9.741595586332057E-001	1.0661952E-004
2	1	0	1	8.961379773616500E+001	-1.0443286E-001	-1.0445213E-001	9.734349027605838E-001	1.0167735E-004
2	1	0	0	9.011439772351878E+001	-9.9426828E-002	-9.9440761E-002	9.778630222923805E-001	9.7239441E-005
2	1	0	1	9.061509771087003E+001	-9.4419837E-002	-9.4419003E-002	9.811671336674861E-001	9.2640825E-005
2	1	0	1	9.111579769822129E+001	-8.9412838E-002	-8.9439057E-002	9.823496900574029E-001	8.7860433E-005
2	1	0	0	9.161639768557507E+001	-8.4406838E-002	-8.4431462E-002	9.813789018790118E-001	8.2859253E-005
2	1	0	1	9.211699767292885E+001	-7.9400845E-002	-7.9436675E-002	9.845337225181576E-001	7.8208082E-005
2	1	0	0	9.261759766028263E+001	-7.4394770E-002	-7.4405730E-002	9.877845635757396E-001	7.3496834E-005
2	1	0	1	9.311819764763641E+001	-6.9388784E-002	-6.9407173E-002	9.866295680157631E-001	6.8479167E-005
2	1	0	0	9.361879763499019E+001	-6.4382784E-002	-6.4402252E-002	9.877770253152569E-001	6.3615065E-005
2	1	0	1	9.411939762234397E+001	-5.9376758E-002	-5.9396654E-002	9.926203622181511E-001	5.8958329E-005
2	1	0	0	9.461999760969775E+001	-5.4370731E-002	-5.4402672E-002	9.941596680097806E-001	5.4084943E-005
2	1	0	1	9.512069759704900E+001	-4.9363758E-002	-4.9398325E-002	9.942405832362814E-001	4.9113820E-005
2	1	0	1	9.562139758440026E+001	-4.4356741E-002	-4.4385765E-002	9.925678630940524E-001	4.4055883E-005
2	1	0	0	9.612199757175404E+001	-3.9350741E-002	-3.9378911E-002	9.942830880476494E-001	3.9153787E-005
2	1	0	1	9.662259755910782E+001	-3.4344736E-002	-3.4368340E-002	9.982051175174673E-001	3.4306653E-005
2	1	0	0	9.712319754646160E+001	-2.9338736E-002	-2.9360995E-002	9.997048169438472E-001	2.9352328E-005
2	1	0	1	9.762379753381538E+001	-2.4332685E-002	-2.4360765E-002	1.002110934439793E+000	2.4412189E-005
2	1	0	0	9.812439752116916E+001	-1.9326689E-002	-1.9334584E-002	1.002152911242570E+000	1.9376210E-005
2	1	0	1	9.862499750852294E+001	-1.4320688E-002	-1.4351437E-002	1.003995291906162E+000	1.4408775E-005
2	1	0	0	9.912559749587672E+001	-9.3146339E-003	-9.3661034E-003	1.003626849336481E+000	9.4000725E-006
2	1	0	0	9.962639748322545E+001	-4.3066959E-003	-4.3535084E-003	1.002241822101375E+000	4.3632681E-006
2	1	0	1	1.001269974705792E+002	6.9930014E-004	6.5671542E-004	1.005652456307361E+000	6.6042747E-007
2	1	0	0	1.006275974579330E+002	5.7053175E-003	5.6642732E-003	1.006658171309844E+000	5.7019870E-006
2	1	0	1	1.011281974452868E+002	1.0711312E-002	1.0677523E-002	1.006279130245078E+000	1.0744568E-005
2	1	0	0	1.016287974326406E+002	1.5717307E-002	1.5677188E-002	1.008188815834144E+000	1.5805565E-005
2	1	0	1	1.021293974199943E+002	2.0723321E-002	2.0702263E-002	1.011875747270235E+000	2.0948119E-005
2	1	0	0	1.026299974073481E+002	2.5729295E-002	2.5701527E-002	1.010434373759411E+000	2.5969706E-005
2	1	0	1	1.031305973947019E+002	3.0735279E-002	3.0710731E-002	1.011809577333141E+000	3.1073410E-005
2	1	0	0	1.036312973820532E+002	3.5742261E-002	3.5721786E-002	1.014538011428908E+000	3.6241108E-005
2	1	0	0	1.041319973694044E+002	4.0749222E-002	4.0727250E-002	1.014487941796556E+000	4.1317304E-005
2	1	0	1	1.046325973567582E+002	4.5755234E-002	4.5725826E-002	1.012764642098389E+000	4.6309498E-005
2	1	0	0	1.051331973441120E+002	5.0761234E-002	5.0727911E-002	1.015980718392866E+000	5.1538580E-005
2	1	0	1	1.056337973314658E+002	5.5767208E-002	5.5743609E-002	1.016000935757830E+000	5.6635559E-005
2	1	0	0	1.061518973183775E+002	6.0948223E-002	6.0914010E-002	1.018305168669241E+000	6.2029052E-005
2	1	0	0	1.066699973052891E+002	6.6129215E-002	6.6086955E-002	1.020992013901877E+000	6.7474255E-005
2	1	0	1	1.071706972926404E+002	7.1136162E-002	7.1071059E-002	1.019932274661144E+000	7.2487666E-005
2	1	0	1	1.076713972799917E+002	7.6143160E-002	7.6089039E-002	1.019704170029289E+000	7.7588309E-005
2	1	0	0	1.081719972673454E+002	8.1149146E-002	8.1101023E-002	1.021507776788177E+000	8.2845327E-005
2	1	0	1	1.086725972546992E+002	8.6155176E-002	8.6105838E-002	1.020483519808542E+000	8.7869586E-005
2	1	0	0	1.091731972420530E+002	9.1161154E-002	9.1103494E-002	1.020790899469070E+000	9.2997616E-005
2	1	0	1	1.096737972294068E+002	9.6167140E-002	9.6117616E-002	1.024054386296589E+000	9.8429664E-005
2	1	0	0	1.099891972214391E+002	9.9321254E-002	9.9291280E-002	1.023519246496811E+000	1.0162654E-004
2	1	0	0	1.100545972197870E+002	9.9997252E-002	9.9936903E-002	1.014796044145312E+000	1.0141557E-004