EC-Lab ASCII FILE
Nb header lines : 55                          

I-V Characterization

Run on channel : 1 (SN 6514)
User : 
CE vs. WE compliance from -10 V to 10 V
Electrode connection : standard
Ewe ctrl range : min = -1.10 V, max = 0.20 V
Safety Limits :
	Do not start on E overload
Acquisition started on : 06/15/2016 18:43:23
Saved on :
	File : B125-G54-UN-G-D1GB-C9 BW 10mVs dark_C01.mpr
	Directory : E:\EC-Lab measurements\B125-G54-UN-G-D1GB\
	Host : 10.0.2.15
Device : VSP (SN 0295)
Address : USB
EC-Lab for windows v11.01 (software)
Internet server v11.00 (firmware)
Command interpretor v11.00 (firmware)
Electrode material : 
Initial state : 
Electrolyte : 
Comments : 
Electrode surface area : 0.001 cm²
Characteristic mass : 0.001 g
Equivalent Weight : 0.000 g/eq.
Density : 0.000 g/cm3
tR (h:m:s)          0:00:0.0000         
dER/dt (mV/h)       0.0                 
dER (mV)            0                   
dtR (s)             0.0000              
dE/dt               10.000              
dE/dt unit          mV/s                
Ei (V)              -1.000              
vs.                 Ref                 
EL (V)              0.100               
vs.                 Ref                 
record              <I>                 
dI                  0.000               
unit dI             µA                  
tI (s)              0.1000              
step percent        100                 
N                   100                 
E range min (V)     -1.100              
E range max (V)     0.200               
I Range             Auto                
I Range min         Unset               
I Range max         Unset               
I Range init        Unset               
Bandwidth           5                   

mode	ox/red	error	control changes	time/s	control/V	Ewe/V	<I>/mA	P/W
2	1	0	0	8.499999785271939E-002	-9.9972111E-001	-9.9969417E-001	-4.289919227361677E-002	4.2886073E-005
2	1	0	1	3.377999914664542E-001	-9.9719477E-001	-9.9720687E-001	-4.847583223815638E-002	4.8340433E-005
2	1	0	0	8.383999788202345E-001	-9.9218845E-001	-9.9222529E-001	-5.445186275234892E-002	5.4028515E-005
2	1	0	1	1.338999966174015E+000	-9.8718262E-001	-9.8722559E-001	-5.429924605028669E-002	5.3605607E-005
2	1	0	0	1.839599953527795E+000	-9.8217642E-001	-9.8222035E-001	-5.248558868819878E-002	5.1552412E-005
2	1	0	1	2.340199940881575E+000	-9.7717053E-001	-9.7720617E-001	-5.058929318090275E-002	4.9436170E-005
2	1	0	0	2.840799928235356E+000	-9.7216457E-001	-9.7219604E-001	-4.889926204310713E-002	4.7539670E-005
2	1	0	0	3.341599915584084E+000	-9.6715641E-001	-9.6718895E-001	-4.743352029400283E-002	4.5877176E-005
2	1	0	1	3.842199902937864E+000	-9.6215063E-001	-9.6218681E-001	-4.610667565697890E-002	4.4363234E-005
2	1	0	0	4.342799890291644E+000	-9.5714438E-001	-9.5715499E-001	-4.492363913435626E-002	4.2998887E-005
2	1	0	1	4.843399877645425E+000	-9.5213872E-001	-9.5217443E-001	-4.380260082669341E-002	4.1707717E-005
2	1	0	0	5.343999864999205E+000	-9.4713229E-001	-9.4717723E-001	-4.275783023470836E-002	4.0499242E-005
2	1	0	1	5.844599852352985E+000	-9.4212669E-001	-9.4216889E-001	-4.176299544001982E-002	3.9347797E-005
2	1	0	0	6.345199839706765E+000	-9.3712044E-001	-9.3717134E-001	-4.081560858130406E-002	3.8251219E-005
2	1	0	1	6.845799827060546E+000	-9.3211466E-001	-9.3215239E-001	-3.989229800404676E-002	3.7185702E-005
2	1	0	0	7.346499814411800E+000	-9.2710739E-001	-9.2716354E-001	-3.900473829349804E-002	3.6163772E-005
2	1	0	0	7.847199801763054E+000	-9.2210078E-001	-9.2215025E-001	-3.815565029224288E-002	3.5185243E-005
2	1	0	1	8.347799789116834E+000	-9.1709447E-001	-9.1712940E-001	-3.729685504143510E-002	3.4206041E-005
2	1	0	0	8.848399776470615E+000	-9.1208875E-001	-9.1213995E-001	-3.647098555277806E-002	3.3266642E-005
2	1	0	1	9.348999763824395E+000	-9.0708238E-001	-9.0713781E-001	-3.566991887040757E-002	3.2357533E-005
2	1	0	0	9.849599751178175E+000	-9.0207654E-001	-9.0211689E-001	-3.487279262940486E-002	3.1459334E-005
2	1	0	1	1.035019973853196E+001	-8.9707035E-001	-8.9710933E-001	-3.407932281048287E-002	3.0572879E-005
2	1	0	0	1.085079972588574E+001	-8.9206445E-001	-8.9210600E-001	-3.332431688164894E-002	2.9728822E-005
2	1	0	1	1.135139971323952E+001	-8.8705838E-001	-8.8709241E-001	-3.255448987935350E-002	2.8878841E-005
2	1	0	0	1.185209970059077E+001	-8.8205129E-001	-8.8209552E-001	-3.181197846054125E-002	2.8061204E-005
2	1	0	0	1.235279968794202E+001	-8.7704456E-001	-8.7709081E-001	-3.108492626470827E-002	2.7264303E-005
2	1	0	1	1.285339967529580E+001	-8.7203830E-001	-8.7210011E-001	-3.035945508156263E-002	2.6476484E-005
2	1	0	0	1.335399966264958E+001	-8.6703265E-001	-8.6709946E-001	-2.964286710070449E-002	2.5703313E-005
2	1	0	1	1.385459965000337E+001	-8.6202633E-001	-8.6208081E-001	-2.894266103336690E-002	2.4950912E-005
2	1	0	0	1.435519963735715E+001	-8.5702056E-001	-8.5708261E-001	-2.824360093197223E-002	2.4207098E-005
2	1	0	1	1.485579962471093E+001	-8.5201430E-001	-8.5207880E-001	-2.755669022306079E-002	2.3480472E-005
2	1	0	0	1.535639961206471E+001	-8.4700859E-001	-8.4706378E-001	-2.688146601395922E-002	2.2770317E-005
2	1	0	1	1.585699959941849E+001	-8.4200227E-001	-8.4204394E-001	-2.624297723613181E-002	2.2097740E-005
2	1	0	0	1.635769958676974E+001	-8.3699554E-001	-8.3706135E-001	-2.557986214152555E-002	2.1411914E-005
2	1	0	0	1.685839957412099E+001	-8.3198833E-001	-8.3205068E-001	-2.493548427567915E-002	2.0747586E-005
2	1	0	1	1.735899956147478E+001	-8.2698250E-001	-8.2704926E-001	-2.430274378481267E-002	2.0099566E-005
2	1	0	0	1.785959954882856E+001	-8.2197624E-001	-8.2202917E-001	-2.370325206880108E-002	1.9484765E-005
2	1	0	1	1.836019953618234E+001	-8.1697041E-001	-8.1703115E-001	-2.310823839980356E-002	1.8880150E-005
2	1	0	0	1.886079952353612E+001	-8.1196427E-001	-8.1201875E-001	-2.251075986489554E-002	1.8279159E-005
2	1	0	1	1.936139951088990E+001	-8.0695838E-001	-8.0700833E-001	-2.191439109569260E-002	1.7685095E-005
2	1	0	0	1.986199949824368E+001	-8.0195230E-001	-8.0198157E-001	-2.133288583989532E-002	1.7108581E-005
2	1	0	1	2.036259948559746E+001	-7.9694617E-001	-7.9701525E-001	-2.076002624407211E-002	1.6546057E-005
2	1	0	1	2.086339947294618E+001	-7.9193836E-001	-7.9197854E-001	-2.020040389685202E-002	1.5998286E-005
2	1	0	0	2.136399946029997E+001	-7.8693223E-001	-7.8697944E-001	-1.964901515898765E-002	1.5463371E-005
2	1	0	1	2.186459944765375E+001	-7.8192645E-001	-7.8197163E-001	-1.910684552478070E-002	1.4941012E-005
2	1	0	0	2.236519943500753E+001	-7.7692014E-001	-7.7696794E-001	-1.856988780670726E-002	1.4428208E-005
2	1	0	1	2.286579942236131E+001	-7.7191436E-001	-7.7194315E-001	-1.804849016211046E-002	1.3932408E-005
2	1	0	0	2.336639940971509E+001	-7.6690811E-001	-7.6694977E-001	-1.752510413779418E-002	1.3440875E-005
2	1	0	1	2.386699939706887E+001	-7.6190245E-001	-7.6194191E-001	-1.701866687977896E-002	1.2967235E-005
2	1	0	0	2.436759938442265E+001	-7.5689614E-001	-7.5694150E-001	-1.652265631440286E-002	1.2506684E-005
2	1	0	1	2.486829937177390E+001	-7.5188935E-001	-7.5190938E-001	-1.604420670269399E-002	1.2063790E-005
2	1	0	1	2.536899935912516E+001	-7.4688232E-001	-7.4691141E-001	-1.556939325810733E-002	1.1628958E-005
2	1	0	0	2.586959934647894E+001	-7.4187636E-001	-7.4188733E-001	-1.510070057507570E-002	1.1203018E-005
2	1	0	1	2.637019933383272E+001	-7.3687017E-001	-7.3689735E-001	-1.465044217683042E-002	1.0795872E-005
2	1	0	0	2.687079932118650E+001	-7.3186433E-001	-7.3189068E-001	-1.421013703595700E-002	1.0400267E-005
2	1	0	1	2.737139930854028E+001	-7.2685814E-001	-7.2688532E-001	-1.377319900406505E-002	1.0011536E-005
2	1	0	0	2.787199929589406E+001	-7.2185218E-001	-7.2187239E-001	-1.335156098902451E-002	9.6381236E-006
2	1	0	1	2.837259928324784E+001	-7.1684611E-001	-7.1688151E-001	-1.292792155695038E-002	9.2677883E-006
2	1	0	0	2.887319927060162E+001	-7.1184015E-001	-7.1188104E-001	-1.252099062057002E-002	8.9134555E-006
2	1	0	1	2.937389925795287E+001	-7.0683318E-001	-7.0687860E-001	-1.212203485972711E-002	8.5688071E-006
2	1	0	1	2.987459924530413E+001	-7.0182604E-001	-7.0187116E-001	-1.174158970389934E-002	8.2410834E-006
2	1	0	0	3.037519923265791E+001	-6.9682014E-001	-6.9686234E-001	-1.137007051724698E-002	7.9233741E-006
2	1	0	1	3.087579922001169E+001	-6.9181401E-001	-6.9184250E-001	-1.100546640360611E-002	7.6140495E-006
2	1	0	0	3.137639920736547E+001	-6.8680817E-001	-6.8682575E-001	-1.063663690180731E-002	7.3055162E-006
2	1	0	1	3.187699919471925E+001	-6.8180203E-001	-6.8183100E-001	-1.028157080461969E-002	7.0102938E-006
2	1	0	0	3.237759918207303E+001	-6.7679626E-001	-6.7683554E-001	-9.934616878938568E-003	6.7241017E-006
2	1	0	1	3.287819916942681E+001	-6.7179000E-001	-6.7183203E-001	-9.603544472895270E-003	6.4519686E-006
2	1	0	0	3.337879915678059E+001	-6.6678423E-001	-6.6681498E-001	-9.280097248869829E-003	6.1881078E-006
2	1	0	1	3.387949914413184E+001	-6.6177708E-001	-6.6180855E-001	-8.974118232176129E-003	5.9391482E-006
2	1	0	1	3.438019913148310E+001	-6.5677029E-001	-6.5679997E-001	-8.662364276832327E-003	5.6894405E-006
2	1	0	0	3.488079911883688E+001	-6.5176398E-001	-6.5180385E-001	-8.357947323343912E-003	5.4477423E-006
2	1	0	1	3.538139910619066E+001	-6.4675808E-001	-6.4678657E-001	-8.070377021685504E-003	5.2198116E-006
2	1	0	0	3.588199909354444E+001	-6.4175200E-001	-6.4178962E-001	-7.783649493499332E-003	4.9954656E-006
2	1	0	1	3.638259908089822E+001	-6.3674599E-001	-6.3680917E-001	-7.505455173990219E-003	4.7795429E-006
2	1	0	0	3.688319906825200E+001	-6.3173991E-001	-6.3179970E-001	-7.251401323643755E-003	4.5814331E-006
2	1	0	1	3.738379905560578E+001	-6.2673390E-001	-6.2680364E-001	-6.986666466578705E-003	4.3792679E-006
2	1	0	0	3.788439904295956E+001	-6.2172788E-001	-6.2178934E-001	-6.739766333522463E-003	4.1907147E-006
2	1	0	0	3.838519903030829E+001	-6.1671990E-001	-6.1678457E-001	-6.493198937907535E-003	4.0049049E-006
2	1	0	1	3.888579901766207E+001	-6.1171395E-001	-6.1177808E-001	-6.247493137274532E-003	3.8220792E-006
2	1	0	0	3.938639900501585E+001	-6.0670781E-001	-6.0677499E-001	-6.024198030276588E-003	3.6553326E-006
2	1	0	1	3.988699899236963E+001	-6.0170197E-001	-6.0177082E-001	-5.804138492133903E-003	3.4927612E-006
2	1	0	0	4.038759897972341E+001	-5.9669590E-001	-5.9675598E-001	-5.594463785085421E-003	3.3385297E-006
2	1	0	1	4.088819896707719E+001	-5.9168994E-001	-5.9174955E-001	-5.383907185916734E-003	3.1859247E-006
2	1	0	0	4.138879895443097E+001	-5.8668387E-001	-5.8673722E-001	-5.186181425770216E-003	3.0429258E-006
2	1	0	1	4.188939894178475E+001	-5.8167791E-001	-5.8173645E-001	-4.992018867391878E-003	2.9040393E-006
2	1	0	0	4.240759892869391E+001	-5.7649595E-001	-5.7655656E-001	-4.796927502902615E-003	2.7656999E-006
2	1	0	1	4.292579891560308E+001	-5.7131392E-001	-5.7137561E-001	-4.600587455849695E-003	2.6286634E-006
2	1	0	0	4.342639890295686E+001	-5.6630778E-001	-5.6637281E-001	-4.427705209119503E-003	2.5077318E-006
2	1	0	1	4.392699889031064E+001	-5.6130189E-001	-5.6136167E-001	-4.253678160470550E-003	2.3878520E-006
2	1	0	0	4.442759887766442E+001	-5.5629581E-001	-5.5636722E-001	-4.090136416249144E-003	2.2756178E-006
2	1	0	1	4.492819886501820E+001	-5.5128986E-001	-5.5136293E-001	-3.936465919737682E-003	2.1704213E-006
2	1	0	0	4.542879885237198E+001	-5.4628372E-001	-5.4633439E-001	-3.787266795900587E-003	2.0691141E-006
2	1	0	1	4.592949883972324E+001	-5.4127675E-001	-5.4134148E-001	-3.636194741877416E-003	1.9684230E-006
2	1	0	1	4.643019882707449E+001	-5.3626972E-001	-5.3632987E-001	-3.496502903369184E-003	1.8752789E-006
2	1	0	0	4.693079881442827E+001	-5.3126365E-001	-5.3131217E-001	-3.355361234723547E-003	1.7827442E-006
2	1	0	1	4.743139880178205E+001	-5.2625763E-001	-5.2631557E-001	-3.224576542141165E-003	1.6971449E-006
2	1	0	0	4.793199878913583E+001	-5.2125168E-001	-5.2131683E-001	-3.096646572357756E-003	1.6143340E-006
2	1	0	1	4.843259877648961E+001	-5.1624566E-001	-5.1630849E-001	-2.971128749748413E-003	1.5340190E-006
2	1	0	0	4.893319876384339E+001	-5.1123959E-001	-5.1129681E-001	-2.854393348412395E-003	1.4594422E-006
2	1	0	1	4.943379875119717E+001	-5.0623357E-001	-5.0629658E-001	-2.744007606964520E-003	1.3892817E-006
2	1	0	0	4.993439873855095E+001	-5.0122762E-001	-5.0128245E-001	-2.638000516142204E-003	1.3223834E-006
2	1	0	1	5.043509872590221E+001	-4.9622062E-001	-4.9628320E-001	-2.529233496322430E-003	1.2552161E-006
2	1	0	1	5.093579871325346E+001	-4.9121365E-001	-4.9126229E-001	-2.426861452758868E-003	1.1922255E-006
2	1	0	0	5.143639870060724E+001	-4.8620760E-001	-4.8625770E-001	-2.333829621807179E-003	1.1348426E-006
2	1	0	1	5.193699868796102E+001	-4.8120162E-001	-4.8124921E-001	-2.241862125796898E-003	1.0788943E-006
2	1	0	0	5.243759867531480E+001	-4.7619566E-001	-4.7622839E-001	-2.145886833948878E-003	1.0219322E-006
2	1	0	1	5.293819866266858E+001	-4.7118965E-001	-4.7122818E-001	-2.063096682581013E-003	9.7218935E-007
2	1	0	0	5.343879865002236E+001	-4.6618357E-001	-4.6622682E-001	-1.983016221991752E-003	9.2453536E-007
2	1	0	1	5.393939863737614E+001	-4.6117753E-001	-4.6121681E-001	-1.903104111718762E-003	8.7774362E-007
2	1	0	0	5.443999862472992E+001	-4.5617157E-001	-4.5621639E-001	-1.825135939356581E-003	8.3265695E-007
2	1	0	0	5.494079861207865E+001	-4.5116362E-001	-4.5118546E-001	-1.750156494894902E-003	7.8964518E-007
2	1	0	1	5.544139859943243E+001	-4.4615752E-001	-4.4618791E-001	-1.677200577209260E-003	7.4834662E-007
2	1	0	0	5.594199858678621E+001	-4.4115153E-001	-4.4119054E-001	-1.609275744822152E-003	7.0999721E-007
2	1	0	1	5.644259857413999E+001	-4.3614548E-001	-4.3618536E-001	-1.548705750614742E-003	6.7552276E-007
2	1	0	0	5.694319856149377E+001	-4.3113950E-001	-4.3116769E-001	-1.485496664288377E-003	6.4049817E-007
2	1	0	1	5.744379854884755E+001	-4.2613348E-001	-4.2617095E-001	-1.419538105038247E-003	6.0496592E-007
2	1	0	0	5.794439853620133E+001	-4.2112744E-001	-4.2117205E-001	-1.360819286415575E-003	5.7313906E-007
2	1	0	1	5.844499852355511E+001	-4.1612145E-001	-4.1616583E-001	-1.308336905432233E-003	5.4448509E-007
2	1	0	0	5.894569851090637E+001	-4.1111445E-001	-4.1114450E-001	-1.254765926025452E-003	5.1589012E-007
2	1	0	0	5.944639849825762E+001	-4.0610752E-001	-4.0614074E-001	-1.203057545721840E-003	4.8861068E-007
2	1	0	1	5.994699848561140E+001	-4.0110153E-001	-4.0114743E-001	-1.152406080255332E-003	4.6228473E-007
2	1	0	0	6.044759847296518E+001	-3.9609548E-001	-3.9614004E-001	-1.108843651735771E-003	4.3925738E-007
2	1	0	1	6.094819846031896E+001	-3.9108953E-001	-3.9113313E-001	-1.061851353552138E-003	4.1532525E-007
2	1	0	0	6.144879844767274E+001	-3.8608348E-001	-3.8612700E-001	-1.020302887051596E-003	3.9396647E-007
2	1	0	1	6.194939843502652E+001	-3.8107747E-001	-3.8112444E-001	-9.754719804543244E-004	3.7177620E-007
2	1	0	0	6.244999842238030E+001	-3.7607145E-001	-3.7611148E-001	-9.348684494523037E-004	3.5161474E-007
2	1	0	1	6.295059840973408E+001	-3.7106547E-001	-3.7110218E-001	-8.985988222804430E-004	3.3347197E-007
2	1	0	0	6.345129839708534E+001	-3.6605844E-001	-3.6609873E-001	-8.617704630608097E-004	3.1549308E-007
2	1	0	0	6.395199838443659E+001	-3.6105147E-001	-3.6110508E-001	-8.247744077710343E-004	2.9783024E-007
2	1	0	1	6.445259837179037E+001	-3.5604540E-001	-3.5608813E-001	-7.913499079481245E-004	2.8179031E-007
2	1	0	0	6.495319835914415E+001	-3.5103938E-001	-3.5107541E-001	-7.582191156647001E-004	2.6619207E-007
2	1	0	1	6.545379834649793E+001	-3.4603339E-001	-3.4605885E-001	-7.258624650629186E-004	2.5119112E-007
2	1	0	0	6.595439833385171E+001	-3.4102729E-001	-3.4105515E-001	-6.938224187164211E-004	2.3663171E-007
2	1	0	1	6.645499832120549E+001	-3.3602130E-001	-3.3605784E-001	-6.655087667839545E-004	2.2364944E-007
2	1	0	0	6.695559830855927E+001	-3.3101532E-001	-3.3104071E-001	-6.374632028563719E-004	2.1102628E-007
2	1	0	1	6.745619829591305E+001	-3.2600930E-001	-3.2602638E-001	-6.093380650228396E-004	1.9866029E-007
2	1	0	0	6.795689828326431E+001	-3.2100233E-001	-3.2105619E-001	-5.818392529328437E-004	1.8680309E-007
2	1	0	0	6.845759827061556E+001	-3.1599531E-001	-3.1603324E-001	-5.564027305672635E-004	1.7584176E-007
2	1	0	1	6.895819825796934E+001	-3.1098932E-001	-3.1103846E-001	-5.332940579877528E-004	1.6587497E-007
2	1	0	0	6.945879824532312E+001	-3.0598330E-001	-3.0602756E-001	-5.082961684047746E-004	1.5555264E-007
2	1	0	1	6.995939823267690E+001	-3.0097735E-001	-3.0102924E-001	-4.868242157349666E-004	1.4654832E-007
2	1	0	0	7.045999822003068E+001	-2.9597127E-001	-2.9601595E-001	-4.646822507844211E-004	1.3755336E-007
2	1	0	1	7.096059820738446E+001	-2.9096526E-001	-2.9099208E-001	-4.440091203884210E-004	1.2920314E-007
2	1	0	0	7.146119819473824E+001	-2.8595927E-001	-2.8599638E-001	-4.238955863712594E-004	1.2123260E-007
2	1	0	1	7.196189818208950E+001	-2.8095227E-001	-2.8098431E-001	-4.044408157718163E-004	1.1364153E-007
2	1	0	1	7.246259816944075E+001	-2.7594525E-001	-2.7598181E-001	-3.869591554890627E-004	1.0679369E-007
2	1	0	0	7.296319815679453E+001	-2.7093923E-001	-2.7097797E-001	-3.697630637330453E-004	1.0019765E-007
2	1	0	1	7.346379814414831E+001	-2.6593316E-001	-2.6598364E-001	-3.529230122943199E-004	9.3871748E-008
2	1	0	0	7.396439813150209E+001	-2.6092717E-001	-2.6097566E-001	-3.377048697787302E-004	8.8132751E-008
2	1	0	1	7.446499811885587E+001	-2.5592121E-001	-2.5595167E-001	-3.205713757748266E-004	8.2050782E-008
2	1	0	0	7.496559810620965E+001	-2.5091514E-001	-2.5095019E-001	-3.042405813874463E-004	7.6349231E-008
2	1	0	1	7.546619809356343E+001	-2.4590911E-001	-2.4596502E-001	-2.895762762906513E-004	7.1225635E-008
2	1	0	0	7.596679808091722E+001	-2.4090312E-001	-2.4097678E-001	-2.762118262105697E-004	6.6560638E-008
2	1	0	1	7.646749806826847E+001	-2.3589611E-001	-2.3595765E-001	-2.627696695845976E-004	6.2002513E-008
2	1	0	1	7.696819805561972E+001	-2.3088913E-001	-2.3094375E-001	-2.512490475608427E-004	5.8024398E-008
2	1	0	0	7.746879804297350E+001	-2.2588311E-001	-2.2594583E-001	-2.381255805837370E-004	5.3803483E-008
2	1	0	1	7.796939803032728E+001	-2.2087710E-001	-2.2094555E-001	-2.268977274529332E-004	5.0132044E-008
2	1	0	0	7.846999801768106E+001	-2.1587110E-001	-2.1594174E-001	-2.142504147549661E-004	4.6265608E-008
2	1	0	1	7.897059800503484E+001	-2.1086511E-001	-2.1093120E-001	-2.024559155939941E-004	4.2704269E-008
2	1	0	0	7.947119799238862E+001	-2.0585907E-001	-2.0594178E-001	-1.907007979955481E-004	3.9273264E-008
2	1	0	1	7.997179797974241E+001	-2.0085308E-001	-2.0091446E-001	-1.794259076380472E-004	3.6049258E-008
2	1	0	0	8.047239796709619E+001	-1.9584705E-001	-1.9591042E-001	-1.696804520642324E-004	3.3242170E-008
2	1	0	1	8.097309795444744E+001	-1.9084005E-001	-1.9089685E-001	-1.588759522254141E-004	3.0328920E-008
2	1	0	1	8.147379794179869E+001	-1.8583307E-001	-1.8588899E-001	-1.489645445037786E-004	2.7690868E-008
2	1	0	0	8.197439792915247E+001	-1.8082707E-001	-1.8087310E-001	-1.401329067802490E-004	2.5346273E-008
2	1	0	1	8.247499791650625E+001	-1.7582099E-001	-1.7585663E-001	-1.318466554875316E-004	2.3186109E-008
2	1	0	0	8.297559790386003E+001	-1.7081499E-001	-1.7085706E-001	-1.235252222966349E-004	2.1105157E-008
2	1	0	1	8.347619789121381E+001	-1.6580902E-001	-1.6585243E-001	-1.151110629852238E-004	1.9091448E-008
2	1	0	0	8.397679787856760E+001	-1.6080301E-001	-1.6083285E-001	-1.081220212811201E-004	1.7389572E-008
2	1	0	1	8.447739786592138E+001	-1.5579697E-001	-1.5582757E-001	-1.014676691669656E-004	1.5811461E-008
2	1	0	0	8.497799785327516E+001	-1.5079097E-001	-1.5082535E-001	-9.386620547774342E-005	1.4157403E-008
2	1	0	1	8.547869784062641E+001	-1.4578396E-001	-1.4582042E-001	-8.771269998032695E-005	1.2790303E-008
2	1	0	1	8.597939782797766E+001	-1.4077696E-001	-1.4080772E-001	-8.009230776345879E-005	1.1277615E-008
2	1	0	0	8.647999781533144E+001	-1.3577096E-001	-1.3578758E-001	-7.301830915732921E-005	9.9149791E-009
2	1	0	1	8.698059780268522E+001	-1.3076492E-001	-1.3078222E-001	-6.620868132922860E-005	8.6589180E-009
2	1	0	0	8.748119779003900E+001	-1.2575890E-001	-1.2576109E-001	-6.010256894376041E-005	7.5585644E-009
2	1	0	1	8.798179777739279E+001	-1.2075283E-001	-1.2077874E-001	-5.325521749104567E-005	6.4320980E-009
2	1	0	0	8.848239776474657E+001	-1.1574685E-001	-1.1576731E-001	-4.885984804089348E-005	5.6563731E-009
2	1	0	1	8.898299775210035E+001	-1.1074086E-001	-1.1076842E-001	-4.354004591773577E-005	4.8228621E-009
2	1	0	0	8.948359773945413E+001	-1.0573485E-001	-1.0576697E-001	-3.774546454644021E-005	3.9922234E-009
2	1	0	0	8.998439772680285E+001	-1.0072687E-001	-1.0074607E-001	-3.192835372440928E-005	3.2166561E-009
2	1	0	1	9.048499771415663E+001	-9.5720880E-002	-9.5744416E-002	-2.652762168006882E-005	2.5398716E-009
2	1	0	0	9.098559770151041E+001	-9.0714820E-002	-9.0737633E-002	-2.122961399974525E-005	1.9263249E-009
2	1	0	1	9.148619768886419E+001	-8.5708819E-002	-8.5748196E-002	-1.540629193011862E-005	1.3210617E-009
2	1	0	0	9.198679767621798E+001	-8.0702826E-002	-8.0729179E-002	-1.063742065493184E-005	8.5875024E-010
2	1	0	1	9.248739766357176E+001	-7.5696781E-002	-7.5712658E-002	-6.330557575259633E-006	4.7930332E-010
2	1	0	0	9.298799765092554E+001	-7.0690766E-002	-7.0720777E-002	-1.292042469987710E-006	9.1374248E-011
2	1	0	1	9.348859763827932E+001	-6.5684773E-002	-6.5704308E-002	3.265249804625353E-006	2.1454098E-010
2	1	0	0	9.398929762563057E+001	-6.0677767E-002	-6.0697109E-002	6.874453709275623E-006	4.1725945E-010
2	1	0	0	9.448999761298182E+001	-5.5670779E-002	-5.5690512E-002	1.152987126176066E-005	6.4210443E-010
2	1	0	1	9.499059760033560E+001	-5.0664775E-002	-5.0686885E-002	1.558672722579984E-005	7.9004264E-010
2	1	0	0	9.549119758768938E+001	-4.5658723E-002	-4.5692291E-002	1.971103327927176E-005	9.0064228E-010
2	1	0	1	9.599179757504317E+001	-4.0652730E-002	-4.0671244E-002	2.392621199633104E-005	9.7310882E-010
2	1	0	0	9.649239756239695E+001	-3.5646725E-002	-3.5662476E-002	2.810393681303776E-005	1.0022559E-009
2	1	0	1	9.699299754975073E+001	-3.0640721E-002	-3.0655717E-002	3.209780979359750E-005	9.8398134E-010
2	1	0	0	9.749359753710451E+001	-2.5634687E-002	-2.5655303E-002	3.598817342831455E-005	9.2328750E-010
2	1	0	1	9.799419752445829E+001	-2.0628672E-002	-2.0637434E-002	3.994095963285747E-005	8.2427892E-010
2	1	0	0	9.849489751180954E+001	-1.5621724E-002	-1.5629424E-002	4.394017202115103E-005	6.8675959E-010
2	1	0	0	9.899559749916079E+001	-1.0614679E-002	-1.0646838E-002	4.795290944056797E-005	5.1054683E-010
2	1	0	1	9.949619748651457E+001	-5.6086816E-003	-5.6479606E-003	5.182113275310047E-005	2.9268371E-010
2	1	0	0	9.999679747386836E+001	-6.0268439E-004	-6.3171488E-004	5.578465454193928E-005	3.5239995E-011
2	1	0	1	1.004973974612221E+002	4.4033169E-003	4.3629953E-003	5.976366834434886E-005	2.6074859E-010
2	1	0	0	1.009979974485759E+002	9.4093317E-003	9.3731768E-003	6.390363582833955E-005	5.9898009E-010
2	1	0	1	1.014985974359297E+002	1.4415309E-002	1.4388963E-002	6.810593148126088E-005	9.7997366E-010
2	1	0	0	1.019991974232835E+002	1.9421341E-002	1.9393129E-002	7.223463680057257E-005	1.4008557E-009
2	1	0	1	1.024997974106373E+002	2.4427319E-002	2.4397448E-002	7.634522644249269E-005	1.8626287E-009
2	1	0	1	1.030005973979860E+002	2.9435238E-002	2.9408081E-002	8.078642496572256E-005	2.3757738E-009
2	1	0	0	1.035011973853398E+002	3.4441225E-002	3.4408510E-002	8.440104622150385E-005	2.9041143E-009
2	1	0	1	1.040017973726935E+002	3.9447241E-002	3.9415896E-002	8.872118322006016E-005	3.4970249E-009
2	1	0	0	1.045023973600473E+002	4.4453233E-002	4.4430107E-002	9.293909005306071E-005	4.1292938E-009
2	1	0	1	1.050029973474011E+002	4.9459264E-002	4.9430605E-002	9.735624746205795E-005	4.8123781E-009
2	1	0	0	1.055035973347549E+002	5.4465234E-002	5.4436244E-002	1.024259695060109E-004	5.5756852E-009
2	1	0	1	1.060041973221087E+002	5.9471216E-002	5.9448943E-002	1.078001575884046E-004	6.4086052E-009
2	1	0	0	1.065047973094624E+002	6.4477213E-002	6.4450584E-002	1.118028865498305E-004	7.2057613E-009
2	1	0	1	1.070054972968137E+002	6.9484212E-002	6.9468290E-002	1.169084068243375E-004	8.1214271E-009
2	1	0	1	1.075061972841650E+002	7.4491143E-002	7.4462421E-002	1.221550306375668E-004	9.0959595E-009
2	1	0	0	1.080067972715187E+002	7.9497166E-002	7.9475671E-002	1.277183959764376E-004	1.0150505E-008
2	1	0	1	1.085073972588725E+002	8.4503159E-002	8.4491432E-002	1.325854638061048E-004	1.1202336E-008
2	1	0	0	1.090079972462263E+002	8.9509174E-002	8.9486040E-002	1.381403453061727E-004	1.2361633E-008
2	1	0	1	1.095085972335801E+002	9.4515137E-002	9.4486900E-002	1.443751026629575E-004	1.3641555E-008
2	1	0	0	1.099065972235258E+002	9.8495215E-002	9.8482534E-002	1.498124100605134E-004	1.4753906E-008
2	1	0	0	1.100545972197870E+002	9.9997252E-002	9.9898703E-002	1.525233695117225E-004	1.5236887E-008