EC-Lab ASCII FILE
Nb header lines : 55                          

I-V Characterization

Run on channel : 1 (SN 6514)
User : 
CE vs. WE compliance from -10 V to 10 V
Electrode connection : standard
Ewe ctrl range : min = -1.10 V, max = 0.20 V
Safety Limits :
	Do not start on E overload
Acquisition started on : 06/15/2016 19:11:09
Saved on :
	File : B125-G54-UN-G-D1GB-C15 FW 100mVs_03_IVC_C01.mpr
	Directory : E:\EC-Lab measurements\B125-G54-UN-G-D1GB\
	Host : 10.0.2.15
Device : VSP (SN 0295)
Address : USB
EC-Lab for windows v11.01 (software)
Internet server v11.00 (firmware)
Command interpretor v11.00 (firmware)
Electrode material : 
Initial state : 
Electrolyte : 
Comments : 
Electrode surface area : 0.001 cm²
Characteristic mass : 0.001 g
Equivalent Weight : 0.000 g/eq.
Density : 0.000 g/cm3
tR (h:m:s)          0:00:0.0000         
dER/dt (mV/h)       0.0                 
dER (mV)            0                   
dtR (s)             0.0000              
dE/dt               100.000             
dE/dt unit          mV/s                
Ei (V)              0.100               
vs.                 Ref                 
EL (V)              -1.000              
vs.                 Ref                 
record              <I>                 
dI                  0.000               
unit dI             µA                  
tI (s)              0.1000              
step percent        100                 
N                   100                 
E range min (V)     -1.100              
E range max (V)     0.200               
I Range             Auto                
I Range min         Unset               
I Range max         Unset               
I Range init        Unset               
Bandwidth           5                   

mode	ox/red	error	control changes	time/s	control/V	Ewe/V	<I>/mA	P/W
2	0	0	1	2.205239944290952E+001	9.9997252E-002	1.0003239E-001	4.405469894409180E-001	4.4068969E-005
2	0	0	0	2.207769944227039E+001	9.7468868E-002	9.7398959E-002	1.136004663024465E+000	1.1064567E-004
2	0	0	0	2.212779944100475E+001	9.2456542E-002	9.2373550E-002	1.133642584621871E+000	1.0471859E-004
2	0	0	0	2.217779943974165E+001	8.7456465E-002	8.7385938E-002	1.130895716615445E+000	9.8824385E-005
2	0	0	0	2.222779943847854E+001	8.2458287E-002	8.2379080E-002	1.128069861813959E+000	9.2929360E-005
2	0	0	1	2.227799943721038E+001	7.7435926E-002	7.7363655E-002	1.127592057039756E+000	8.7234643E-005
2	0	0	1	2.232799943594728E+001	7.2437815E-002	7.2358727E-002	1.128711006662375E+000	8.1672093E-005
2	0	0	1	2.237799943468417E+001	6.7437403E-002	6.7357987E-002	1.127633211534972E+000	7.5955104E-005
2	0	0	0	2.242809943341854E+001	6.2425356E-002	6.2353674E-002	1.126236807625977E+000	7.0225004E-005
2	0	0	0	2.247819943215291E+001	5.7418954E-002	5.7341769E-002	1.126214826735879E+000	6.4579152E-005
2	0	0	0	2.252819943088980E+001	5.2416533E-002	5.2338745E-002	1.127069820239372E+000	5.8989419E-005
2	0	0	1	2.257829942962417E+001	4.7406722E-002	4.7326405E-002	1.126296257793140E+000	5.3303553E-005
2	0	0	1	2.262839942835853E+001	4.2398281E-002	4.2320762E-002	1.125557071076840E+000	4.7634432E-005
2	0	0	1	2.267839942709543E+001	3.7395880E-002	3.7321474E-002	1.124359718154975E+000	4.1962761E-005
2	0	0	0	2.272849942582980E+001	3.2388054E-002	3.2303259E-002	1.123961809941853E+000	3.6307629E-005
2	0	0	0	2.277859942456416E+001	2.7377391E-002	2.7294347E-002	1.124008400398901E+000	3.0679075E-005
2	0	0	0	2.282859942330106E+001	2.2375613E-002	2.2295481E-002	1.124225500623406E+000	2.5065148E-005
2	0	0	0	2.287859942203795E+001	1.7378885E-002	1.7302563E-002	1.123908143195161E+000	1.9446492E-005
2	0	0	1	2.292879942076979E+001	1.2356520E-002	1.2281734E-002	1.122357589830164E+000	1.3784497E-005
2	0	0	1	2.297879941950669E+001	7.3569622E-003	7.2742677E-003	1.122534647513250E+000	8.1656171E-006
2	0	0	1	2.302879941824358E+001	2.3582140E-003	2.2708038E-003	1.122668273420907E+000	2.5493594E-006
2	0	0	0	2.307899941697542E+001	-2.6641628E-003	-2.7631640E-003	1.121108975097176E+000	3.0978078E-006
2	0	0	0	2.312899941571231E+001	-7.6617226E-003	-7.7557899E-003	1.120379317674232E+000	8.6894270E-006
2	0	0	0	2.317899941444921E+001	-1.2662713E-002	-1.2744685E-002	1.119378534077452E+000	1.4266127E-005
2	0	0	1	2.322909941318358E+001	-1.7674204E-002	-1.7740641E-002	1.116638065758222E+000	1.9809875E-005
2	0	0	1	2.327919941191794E+001	-2.2681244E-002	-2.2742338E-002	1.114230876670859E+000	2.5340216E-005
2	0	0	1	2.332919941065484E+001	-2.7683457E-002	-2.7753903E-002	1.113194859221466E+000	3.0895502E-005
2	0	0	0	2.337929940938920E+001	-3.2692939E-002	-3.2759439E-002	1.111144558318278E+000	3.6400474E-005
2	0	0	0	2.342939940812357E+001	-3.7701990E-002	-3.7765797E-002	1.109179030481110E+000	4.1889030E-005
2	0	0	0	2.347939940686047E+001	-4.2704396E-002	-4.2787854E-002	1.106631515587073E+000	4.7350386E-005
2	0	0	1	2.352949940559483E+001	-4.7711659E-002	-4.7783349E-002	1.104336853113992E+000	5.2768912E-005
2	0	0	1	2.357959940432920E+001	-5.2722931E-002	-5.2795507E-002	1.102288831458499E+000	5.8195899E-005
2	0	0	1	2.362959940306610E+001	-5.7724137E-002	-5.7801150E-002	1.098335229899053E+000	6.3485037E-005
2	0	0	1	2.367959940180299E+001	-6.2721238E-002	-6.2798217E-002	1.094720624468026E+000	6.8746500E-005
2	0	0	0	2.372979940053483E+001	-6.7743629E-002	-6.7822978E-002	1.090303568007078E+000	7.3947638E-005
2	0	0	0	2.377979939927172E+001	-7.2742835E-002	-7.2815694E-002	1.085183040540304E+000	7.9018355E-005
2	0	0	0	2.382979939800862E+001	-7.7742167E-002	-7.7817090E-002	1.080876610794824E+000	8.4110674E-005
2	0	0	1	2.387999939674046E+001	-8.2764611E-002	-8.2848623E-002	1.076035018831627E+000	8.9148023E-005
2	0	0	1	2.392999939547735E+001	-8.7761573E-002	-8.7844186E-002	1.071037380052662E+000	9.4084404E-005
2	0	0	1	2.397999939421425E+001	-9.2762947E-002	-9.2838354E-002	1.066800949993684E+000	9.9040044E-005
2	0	0	0	2.403009939294861E+001	-9.7774096E-002	-9.7841948E-002	1.059542991738159E+000	1.0366775E-004
2	0	0	0	2.408019939168298E+001	-1.0278147E-001	-1.0286383E-001	1.054930831896540E+000	1.0851422E-004
2	0	0	0	2.413019939041988E+001	-1.0778385E-001	-1.0785363E-001	1.049214478403471E+000	1.1316159E-004
2	0	0	1	2.418029938915424E+001	-1.1279289E-001	-1.1285887E-001	1.043815728917343E+000	1.1780387E-004
2	0	0	1	2.423039938788861E+001	-1.1780249E-001	-1.1787242E-001	1.037742717109913E+000	1.2232125E-004
2	0	0	1	2.428039938662550E+001	-1.2280480E-001	-1.2287927E-001	1.032848390340014E+000	1.2691566E-004
2	0	0	0	2.433049938535987E+001	-1.2781152E-001	-1.2786703E-001	1.026945708666779E+000	1.3131250E-004
2	0	0	0	2.438059938409424E+001	-1.3282314E-001	-1.3288018E-001	1.019784197194067E+000	1.3550911E-004
2	0	0	0	2.443059938283113E+001	-1.3782398E-001	-1.3788845E-001	1.013542908934522E+000	1.3975585E-004
2	0	0	0	2.448059938156803E+001	-1.4282174E-001	-1.4290091E-001	1.008543271306360E+000	1.4412176E-004
2	0	0	1	2.453079938029987E+001	-1.4784418E-001	-1.4791693E-001	1.001829640490779E+000	1.4818757E-004
2	0	0	1	2.458079937903676E+001	-1.5284264E-001	-1.5292639E-001	9.951918414335239E-001	1.5219109E-004
2	0	0	1	2.463079937777366E+001	-1.5784261E-001	-1.5791893E-001	9.897706753340287E-001	1.5630353E-004
2	0	0	0	2.468099937650550E+001	-1.6286482E-001	-1.6296323E-001	9.828798720254572E-001	1.6017328E-004
2	0	0	0	2.473099937524239E+001	-1.6786128E-001	-1.6795731E-001	9.749531551312600E-001	1.6375050E-004
2	0	0	0	2.478099937397928E+001	-1.7286325E-001	-1.7295858E-001	9.684687612521401E-001	1.6750499E-004
2	0	0	1	2.483109937271365E+001	-1.7787400E-001	-1.7798220E-001	9.632481333718734E-001	1.7144102E-004
2	0	0	1	2.488119937144802E+001	-1.8288201E-001	-1.8298019E-001	9.581356955762974E-001	1.7531986E-004
2	0	0	1	2.493119937018491E+001	-1.8788421E-001	-1.8799475E-001	9.500265741653355E-001	1.7860001E-004
2	0	0	0	2.498129936891928E+001	-1.9289270E-001	-1.9299792E-001	9.447040249173853E-001	1.8232591E-004
2	0	0	0	2.503139936765365E+001	-1.9790259E-001	-1.9799687E-001	9.375736030208088E-001	1.8563664E-004
2	0	0	0	2.508139936639054E+001	-2.0290504E-001	-2.0301612E-001	9.306609350815727E-001	1.8893917E-004
2	0	0	1	2.513149936512491E+001	-2.0791149E-001	-2.0803086E-001	9.243345392161739E-001	1.9229011E-004
2	0	0	1	2.518159936385928E+001	-2.1292375E-001	-2.1302995E-001	9.171748616255817E-001	1.9538571E-004
2	0	0	1	2.523159936259617E+001	-2.1792375E-001	-2.1803302E-001	9.112198457008756E-001	1.9867602E-004
2	0	0	1	2.528159936133306E+001	-2.2292231E-001	-2.2303414E-001	9.055813308545595E-001	2.0197556E-004
2	0	0	0	2.533179936006491E+001	-2.2794460E-001	-2.2804558E-001	8.987810241577421E-001	2.0496304E-004
2	0	0	0	2.538179935880180E+001	-2.3294246E-001	-2.3304780E-001	8.909931825768251E-001	2.0764400E-004
2	0	0	0	2.543179935753869E+001	-2.3794290E-001	-2.3804229E-001	8.843184227451903E-001	2.1050518E-004
2	0	0	1	2.548189935627306E+001	-2.4295497E-001	-2.4306777E-001	8.774660500209599E-001	2.1328371E-004
2	0	0	1	2.553199935500743E+001	-2.4796148E-001	-2.4804442E-001	8.699548153434620E-001	2.1578744E-004
2	0	0	1	2.558199935374432E+001	-2.5296381E-001	-2.5304234E-001	8.630718224408582E-001	2.1839372E-004
2	0	0	0	2.563209935247869E+001	-2.5797385E-001	-2.5806203E-001	8.556236268414708E-001	2.2080398E-004
2	0	0	0	2.568219935121306E+001	-2.6298198E-001	-2.6307771E-001	8.474443099315803E-001	2.2294371E-004
2	0	0	0	2.573219934994995E+001	-2.6798448E-001	-2.6807076E-001	8.404175882736062E-001	2.2529138E-004
2	0	0	1	2.578229934868432E+001	-2.7299249E-001	-2.7306715E-001	8.331880397377152E-001	2.2751628E-004
2	0	0	1	2.583239934741869E+001	-2.7800319E-001	-2.7807590E-001	8.260408798774197E-001	2.2970207E-004
2	0	0	1	2.588239934615558E+001	-2.8300476E-001	-2.8309888E-001	8.181995883570403E-001	2.3163139E-004
2	0	0	1	2.593239934489247E+001	-2.8800178E-001	-2.8808540E-001	8.104585450016315E-001	2.3348127E-004
2	0	0	0	2.598259934362432E+001	-2.9302397E-001	-2.9309693E-001	8.030825947847839E-001	2.3538104E-004
2	0	0	0	2.603259934236121E+001	-2.9802349E-001	-2.9811615E-001	7.959279070072789E-001	2.3727896E-004
2	0	0	0	2.608259934109810E+001	-3.0302268E-001	-3.0311519E-001	7.878018350097076E-001	2.3879470E-004
2	0	0	1	2.613279933982994E+001	-3.0804467E-001	-3.0812812E-001	7.799935976496570E-001	2.4033796E-004
2	0	0	1	2.618279933856684E+001	-3.1304225E-001	-3.1312540E-001	7.713453776493668E-001	2.4152783E-004
2	0	0	1	2.623279933730373E+001	-3.1804350E-001	-3.1813914E-001	7.636300243105056E-001	2.4294060E-004
2	0	0	0	2.628289933603810E+001	-3.2305506E-001	-3.2314047E-001	7.558898606030482E-001	2.4425861E-004
2	0	0	0	2.633299933477247E+001	-3.2806170E-001	-3.2811853E-001	7.481814916026703E-001	2.4549221E-004
2	0	0	0	2.638299933350936E+001	-3.3306438E-001	-3.3312389E-001	7.397825367822612E-001	2.4643925E-004
2	0	0	1	2.643309933224373E+001	-3.3807343E-001	-3.3814290E-001	7.323120608580425E-001	2.4762613E-004
2	0	0	1	2.648319933097810E+001	-3.4308267E-001	-3.4315270E-001	7.245222134575187E-001	2.4862174E-004
2	0	0	1	2.653319932971499E+001	-3.4808499E-001	-3.4816262E-001	7.165328628960808E-001	2.4946997E-004
2	0	0	0	2.658329932844936E+001	-3.5309243E-001	-3.5317749E-001	7.081770578628142E-001	2.5011221E-004
2	0	0	0	2.663339932718372E+001	-3.5810342E-001	-3.5819116E-001	6.995280098301002E-001	2.5056474E-004
2	0	0	0	2.668339932592062E+001	-3.6310470E-001	-3.6318976E-001	6.912374657632654E-001	2.5105037E-004
2	0	0	0	2.673339932465751E+001	-3.6810192E-001	-3.6818814E-001	6.834383878687387E-001	2.5163390E-004
2	0	0	1	2.678359932338935E+001	-3.7312421E-001	-3.7320578E-001	6.753836071158830E-001	2.5205707E-004
2	0	0	1	2.683359932212625E+001	-3.7812337E-001	-3.7820843E-001	6.671479619709118E-001	2.5232098E-004
2	0	0	1	2.688359932086314E+001	-3.8312307E-001	-3.8320976E-001	6.581433784311912E-001	2.5220696E-004
2	0	0	0	2.693379931959498E+001	-3.8814548E-001	-3.8822815E-001	6.490538444373861E-001	2.5198096E-004
2	0	0	0	2.698379931833188E+001	-3.9314204E-001	-3.9323920E-001	6.402216959038807E-001	2.5176027E-004
2	0	0	0	2.703379931706877E+001	-3.9814392E-001	-3.9823714E-001	6.307471876689306E-001	2.5118695E-004
2	0	0	1	2.708389931580314E+001	-4.0315449E-001	-4.0325314E-001	6.203861885739359E-001	2.5017268E-004
2	0	0	1	2.713399931453750E+001	-4.0816209E-001	-4.0823823E-001	6.105890134629615E-001	2.4926578E-004
2	0	0	1	2.718399931327440E+001	-4.1316473E-001	-4.1322652E-001	5.998745085964270E-001	2.4788405E-004
2	0	0	0	2.723409931200877E+001	-4.1817367E-001	-4.1826648E-001	5.898462985720929E-001	2.4671294E-004
2	0	0	0	2.728419931074313E+001	-4.2318293E-001	-4.2326203E-001	5.804173397280641E-001	2.4566863E-004
2	0	0	0	2.733419930948003E+001	-4.2818573E-001	-4.2825562E-001	5.701467855321862E-001	2.4416856E-004
2	0	0	1	2.738429930821439E+001	-4.3319198E-001	-4.3327174E-001	5.600579477632728E-001	2.4265728E-004
2	0	0	1	2.743439930694876E+001	-4.3820378E-001	-4.3828022E-001	5.492997605948915E-001	2.4074722E-004
2	0	0	1	2.748439930568566E+001	-4.4320461E-001	-4.4328627E-001	5.384271609625477E-001	2.3867737E-004
2	0	0	1	2.753439930442255E+001	-4.4820264E-001	-4.4828182E-001	5.276269728292284E-001	2.3652558E-004
2	0	0	0	2.758459930315439E+001	-4.5322481E-001	-4.5330456E-001	5.162162093488973E-001	2.3400316E-004
2	0	0	0	2.763459930189129E+001	-4.5822334E-001	-4.5831683E-001	5.044365078544253E-001	2.3119175E-004
2	0	0	0	2.768459930062818E+001	-4.6322325E-001	-4.6332115E-001	4.927718907506222E-001	2.2831163E-004
2	0	0	1	2.773479929936002E+001	-4.6824524E-001	-4.6833384E-001	4.814165048590784E-001	2.2546363E-004
2	0	0	1	2.780009929771040E+001	-4.7477597E-001	-4.7484672E-001	4.649488970477544E-001	2.2077946E-004
2	0	0	0	2.786539929606079E+001	-4.8130241E-001	-4.8134473E-001	4.498547572687683E-001	2.1653522E-004
2	0	0	0	2.791539929479768E+001	-4.8630401E-001	-4.8636913E-001	4.371946992686584E-001	2.1263801E-004
2	0	0	1	2.796549929353205E+001	-4.9131483E-001	-4.9136111E-001	4.247528300092811E-001	2.0870702E-004
2	0	0	1	2.801559929226642E+001	-4.9632245E-001	-4.9638832E-001	4.124098946597119E-001	2.0471546E-004
2	0	0	1	2.806559929100331E+001	-5.0132489E-001	-5.0138515E-001	3.992220528035193E-001	2.0016401E-004
2	0	0	0	2.811569928973768E+001	-5.0633323E-001	-5.0638705E-001	3.856940199655621E-001	1.9531047E-004
2	0	0	0	2.816579928847204E+001	-5.1134360E-001	-5.1141387E-001	3.719284379661136E-001	1.9020936E-004
2	0	0	0	2.821579928720894E+001	-5.1634592E-001	-5.1642042E-001	3.583853183170649E-001	1.8507750E-004
2	0	0	1	2.826589928594331E+001	-5.2135205E-001	-5.2141500E-001	3.449443664820375E-001	1.7985917E-004
2	0	0	1	2.831599928467767E+001	-5.2636427E-001	-5.2641904E-001	3.313032766492459E-001	1.7440435E-004
2	0	0	1	2.836599928341457E+001	-5.3136420E-001	-5.3142089E-001	3.173531788299329E-001	1.6864811E-004
2	0	0	1	2.841599928215146E+001	-5.3636277E-001	-5.3641075E-001	3.026388279427288E-001	1.6233872E-004
2	0	0	0	2.846619928088330E+001	-5.4138535E-001	-5.4144531E-001	2.880615367758699E-001	1.5596957E-004
2	0	0	0	2.851619927962020E+001	-5.4638338E-001	-5.4644144E-001	2.729984448979552E-001	1.4917766E-004
2	0	0	0	2.856619927835709E+001	-5.5138338E-001	-5.5145288E-001	2.576977992428811E-001	1.4210820E-004
2	0	0	1	2.861629927709146E+001	-5.5639589E-001	-5.5646217E-001	2.420458853755885E-001	1.3468938E-004
2	0	0	1	2.866639927582582E+001	-5.6140178E-001	-5.6147581E-001	2.266129173603044E-001	1.2723767E-004
2	0	0	1	2.871639927456272E+001	-5.6640440E-001	-5.6646246E-001	2.109762074194892E-001	1.1951010E-004
2	0	0	0	2.876649927329709E+001	-5.7141447E-001	-5.7146931E-001	1.948065026653072E-001	1.1132593E-004
2	0	0	0	2.881659927203145E+001	-5.7642311E-001	-5.7648259E-001	1.785595426104391E-001	1.0293646E-004
2	0	0	0	2.886659927076835E+001	-5.8142513E-001	-5.8147264E-001	1.619408978578814E-001	9.4164199E-005
2	0	0	1	2.891669926950271E+001	-5.8643329E-001	-5.8649135E-001	1.451594976563940E-001	8.5134787E-005
2	0	0	1	2.896679926823708E+001	-5.9144366E-001	-5.9150559E-001	1.281826389962601E-001	7.5820746E-005
2	0	0	1	2.901679926697398E+001	-5.9644538E-001	-5.9651053E-001	1.111688271700197E-001	6.6313376E-005
2	0	0	1	2.906679926571087E+001	-6.0144228E-001	-6.0150445E-001	9.385004959748189E-002	5.6451223E-005
2	0	0	0	2.911699926444271E+001	-6.0646474E-001	-6.0652924E-001	7.610025401554299E-002	4.6157027E-005
2	0	0	0	2.916699926317960E+001	-6.1146432E-001	-6.1152840E-001	5.844015198469915E-002	3.5737812E-005
2	0	0	0	2.923199926153757E+001	-6.1796391E-001	-6.1803627E-001	3.540290115354902E-002	2.1880276E-005
2	0	0	1	2.929719925989048E+001	-6.2448281E-001	-6.2453556E-001	1.198531299365836E-002	7.4852542E-006
2	0	0	1	2.934719925862737E+001	-6.2948531E-001	-6.2954807E-001	-6.274052886368712E-003	3.9498177E-006
2	0	0	0	2.939729925736174E+001	-6.3449299E-001	-6.3455480E-001	-2.466724363519779E-002	1.5652719E-005
2	0	0	0	2.944739925609611E+001	-6.3950419E-001	-6.3954687E-001	-4.323154165483312E-002	2.7648597E-005
2	0	0	0	2.949739925483300E+001	-6.4450538E-001	-6.4454949E-001	-6.186494374141727E-002	3.9875016E-005
2	0	0	0	2.954739925356989E+001	-6.4950264E-001	-6.4955342E-001	-8.055291282653224E-002	5.2323419E-005
2	0	0	1	2.961259925192280E+001	-6.5602779E-001	-6.5607303E-001	-1.050744031830069E-001	6.8936482E-005
2	0	0	1	2.967759925028076E+001	-6.6252476E-001	-6.6255224E-001	-1.297415513456434E-001	8.5960557E-005
2	0	0	0	2.972769924901513E+001	-6.6753417E-001	-6.6755980E-001	-1.488957724362849E-001	9.9396835E-005
2	0	0	0	2.977779924774950E+001	-6.7254353E-001	-6.7258805E-001	-1.681264949395574E-001	1.1307987E-004
2	0	0	0	2.982779924648639E+001	-6.7754585E-001	-6.7758870E-001	-1.872188815244127E-001	1.2685740E-004
2	0	0	1	2.987789924522076E+001	-6.8255311E-001	-6.8258756E-001	-2.065022372127379E-001	1.4095586E-004
2	0	0	1	2.992799924395513E+001	-6.8756402E-001	-6.8760151E-001	-2.258879514840575E-001	1.5532090E-004
2	0	0	1	2.997799924269202E+001	-6.9256526E-001	-6.9259006E-001	-2.452705910935347E-001	1.6987197E-004
2	0	0	1	3.002799924142892E+001	-6.9756287E-001	-6.9759715E-001	-2.645665115594014E-001	1.8456085E-004
2	0	0	0	3.007819924016076E+001	-7.0258498E-001	-7.0261323E-001	-2.839664012018064E-001	1.9951854E-004
2	0	0	0	3.012819923889765E+001	-7.0758408E-001	-7.0762968E-001	-3.034919583378981E-001	2.1475992E-004
2	0	0	0	3.017819923763454E+001	-7.1258402E-001	-7.1262735E-001	-3.227907238746877E-001	2.3002950E-004
2	0	0	1	3.022839923636639E+001	-7.1760613E-001	-7.1763355E-001	-3.422959896972717E-001	2.4564308E-004
2	0	0	1	3.027839923510328E+001	-7.2260261E-001	-7.2261721E-001	-3.612544898216514E-001	2.6104870E-004
2	0	0	1	3.032839923384017E+001	-7.2760463E-001	-7.2763449E-001	-3.803628604317364E-001	2.7676515E-004
2	0	0	0	3.037849923257454E+001	-7.3261529E-001	-7.3264426E-001	-3.997678121538577E-001	2.9288759E-004
2	0	0	0	3.042859923130891E+001	-7.3762304E-001	-7.3764420E-001	-4.186831934076087E-001	3.0883923E-004
2	0	0	0	3.047859923004580E+001	-7.4262542E-001	-7.4264276E-001	-4.380346291963781E-001	3.2530323E-004
2	0	0	1	3.052869922878017E+001	-7.4763441E-001	-7.4765998E-001	-4.568154966304938E-001	3.4154268E-004
2	0	0	1	3.057879922751454E+001	-7.5264382E-001	-7.5266755E-001	-4.755940291063840E-001	3.5796419E-004
2	0	0	1	3.062879922625143E+001	-7.5764620E-001	-7.5769228E-001	-4.943591834371937E-001	3.7457215E-004
2	0	0	0	3.067889922498580E+001	-7.6265275E-001	-7.6269066E-001	-5.135706658170276E-001	3.9169556E-004
2	0	0	0	3.072899922372017E+001	-7.6766455E-001	-7.6770043E-001	-5.317684530742977E-001	4.0823888E-004
2	0	0	0	3.077899922245706E+001	-7.7266538E-001	-7.7270794E-001	-5.495731867129932E-001	4.2465958E-004
2	0	0	0	3.082899922119395E+001	-7.7766347E-001	-7.7771628E-001	-5.678902750761807E-001	4.4165752E-004
2	0	0	1	3.087919921992579E+001	-7.8268552E-001	-7.8272319E-001	-5.860046236771073E-001	4.5867939E-004
2	0	0	1	3.092919921866269E+001	-7.8768390E-001	-7.8772384E-001	-6.033490195226294E-001	4.7527242E-004
2	0	0	1	3.097919921739958E+001	-7.9268408E-001	-7.9273582E-001	-6.206742537220976E-001	4.9203070E-004
2	0	0	0	3.102939921613142E+001	-7.9770601E-001	-7.9776943E-001	-6.387835040266561E-001	5.0960196E-004
2	0	0	0	3.107939921486832E+001	-8.0270272E-001	-8.0273575E-001	-6.554899820704190E-001	5.2618526E-004
2	0	0	0	3.112939921360521E+001	-8.0770510E-001	-8.0776405E-001	-6.727148049344507E-001	5.4339482E-004
2	0	0	1	3.117949921233958E+001	-8.1271553E-001	-8.1278306E-001	-6.897304894266831E-001	5.6060124E-004
2	0	0	1	3.122959921107395E+001	-8.1772327E-001	-8.1777602E-001	-7.062732089380850E-001	5.7757332E-004
2	0	0	1	3.127959920981084E+001	-8.2272601E-001	-8.2278115E-001	-7.221305023028144E-001	5.9415534E-004
2	0	0	0	3.132969920854521E+001	-8.2773381E-001	-8.2779586E-001	-7.377565355491216E-001	6.1071181E-004
2	0	0	0	3.137979920727958E+001	-8.3274400E-001	-8.3281273E-001	-7.534839628337364E-001	6.2751101E-004
2	0	0	0	3.142979920601647E+001	-8.3774650E-001	-8.3781183E-001	-7.689667390233703E-001	6.4424943E-004
2	0	0	0	3.147979920475336E+001	-8.4274310E-001	-8.4278172E-001	-7.851038247964013E-001	6.6167116E-004
2	0	0	1	3.152999920348520E+001	-8.4776515E-001	-8.4782809E-001	-8.006261829521364E-001	6.7879335E-004
2	0	0	1	3.157999920222210E+001	-8.5276520E-001	-8.5283095E-001	-8.165542311325993E-001	6.9638272E-004
2	0	0	1	3.162999920095899E+001	-8.5776341E-001	-8.5782111E-001	-8.315533019000743E-001	7.1332400E-004
2	0	0	0	3.168019919969083E+001	-8.6278588E-001	-8.6284870E-001	-8.464893788369476E-001	7.3039223E-004
2	0	0	0	3.173019919842773E+001	-8.6778378E-001	-8.6784858E-001	-8.607870064023526E-001	7.4703275E-004
2	0	0	0	3.178019919716462E+001	-8.7278473E-001	-8.7285453E-001	-8.756454849593034E-001	7.6431112E-004
2	0	0	1	3.183029919589899E+001	-8.7779659E-001	-8.7783426E-001	-8.896884945800363E-001	7.8099902E-004
2	0	0	1	3.188039919463336E+001	-8.8280290E-001	-8.8284916E-001	-9.029962336112369E-001	7.9720945E-004
2	0	0	1	3.193039919337025E+001	-8.8780546E-001	-8.8786137E-001	-9.172713180142558E-001	8.1440975E-004
2	0	0	0	3.198049919210462E+001	-8.9281476E-001	-8.9286041E-001	-9.312329641385997E-001	8.3146105E-004
2	0	0	0	3.203059919083898E+001	-8.9782363E-001	-8.9787441E-001	-9.451176899385700E-001	8.4859697E-004
2	0	0	0	3.208059918957588E+001	-9.0282625E-001	-9.0287608E-001	-9.595359948176316E-001	8.6634210E-004
2	0	0	1	3.213069918831025E+001	-9.0783417E-001	-9.0788311E-001	-9.723561383276584E-001	8.8278571E-004
2	0	0	1	3.218079918704461E+001	-9.1284448E-001	-9.1289848E-001	-9.852431384606726E-001	8.9942699E-004
2	0	0	1	3.223079918578151E+001	-9.1784650E-001	-9.1788501E-001	-9.975071455256712E-001	9.1559684E-004
2	0	0	1	3.228079918451840E+001	-9.2284292E-001	-9.2289007E-001	-1.010184176949972E+000	9.3228894E-004
2	0	0	0	3.234599918287131E+001	-9.2936456E-001	-9.2945027E-001	-1.028207756147363E+000	9.5566799E-004
2	0	0	0	3.241099918122927E+001	-9.3586564E-001	-9.3598807E-001	-1.042786933417203E+000	9.7603613E-004
2	0	0	1	3.246109917996364E+001	-9.4087517E-001	-9.4098413E-001	-1.054643362489369E+000	9.9240267E-004
2	0	0	1	3.251119917869801E+001	-9.4588405E-001	-9.4600630E-001	-1.066175463352141E+000	1.0086087E-003
2	0	0	1	3.256119917743490E+001	-9.5088643E-001	-9.5100278E-001	-1.076885325005774E+000	1.0241210E-003
2	0	0	0	3.261129917616927E+001	-9.5589346E-001	-9.5597237E-001	-1.088379181838206E+000	1.0404604E-003
2	0	0	0	3.266139917490364E+001	-9.6090466E-001	-9.6099406E-001	-1.099665292827532E+000	1.0567718E-003
2	0	0	0	3.271139917364053E+001	-9.6590620E-001	-9.6601188E-001	-1.111657878004376E+000	1.0738748E-003
2	0	0	0	3.276139917237742E+001	-9.7090364E-001	-9.7101533E-001	-1.123897784345097E+000	1.0913219E-003
2	0	0	1	3.281159917110926E+001	-9.7592562E-001	-9.7602689E-001	-1.135677322231450E+000	1.1084516E-003
2	0	0	1	3.286159916984616E+001	-9.8092502E-001	-9.8103696E-001	-1.146271704544945E+000	1.1245349E-003
2	0	0	1	3.291159916858305E+001	-9.8592401E-001	-9.8604971E-001	-1.157350059992959E+000	1.1412047E-003
2	0	0	0	3.296179916731489E+001	-9.9094623E-001	-9.9105030E-001	-1.167906911688789E+000	1.1574544E-003
2	0	0	0	3.301179916605179E+001	-9.9594361E-001	-9.9603575E-001	-1.178738690443289E+000	1.1740659E-003
2	0	0	0	3.304449916522572E+001	-9.9921608E-001	-9.9931687E-001	-1.185647227581992E+000	1.1848373E-003
2	0	0	1	3.305239916502615E+001	-1.0000215E+000	-1.0001525E+000	-1.185091137886047E+000	1.1852718E-003