EC-Lab ASCII FILE
Nb header lines : 55                          

I-V Characterization

Run on channel : 1 (SN 6514)
User : 
CE vs. WE compliance from -10 V to 10 V
Electrode connection : standard
Ewe ctrl range : min = -1.10 V, max = 0.20 V
Safety Limits :
	Do not start on E overload
Acquisition started on : 06/15/2016 18:57:58
Saved on :
	File : B125-G54-UN-G-D1GB-C14 FW 10mVs_C01.mpr
	Directory : E:\EC-Lab measurements\B125-G54-UN-G-D1GB\
	Host : 10.0.2.15
Device : VSP (SN 0295)
Address : USB
EC-Lab for windows v11.01 (software)
Internet server v11.00 (firmware)
Command interpretor v11.00 (firmware)
Electrode material : 
Initial state : 
Electrolyte : 
Comments : 
Electrode surface area : 0.001 cm²
Characteristic mass : 0.001 g
Equivalent Weight : 0.000 g/eq.
Density : 0.000 g/cm3
tR (h:m:s)          0:00:0.0000         
dER/dt (mV/h)       0.0                 
dER (mV)            0                   
dtR (s)             0.0000              
dE/dt               10.000              
dE/dt unit          mV/s                
Ei (V)              0.100               
vs.                 Ref                 
EL (V)              -1.000              
vs.                 Ref                 
record              <I>                 
dI                  0.000               
unit dI             µA                  
tI (s)              0.1000              
step percent        100                 
N                   100                 
E range min (V)     -1.100              
E range max (V)     0.200               
I Range             Auto                
I Range min         Unset               
I Range max         Unset               
I Range init        Unset               
Bandwidth           5                   

mode	ox/red	error	control changes	time/s	control/V	Ewe/V	<I>/mA	P/W
2	0	0	0	1.449999963369919E-001	9.9096134E-002	9.9039294E-002	1.094727282524109E+000	1.0842102E-004
2	0	0	1	3.977999899507267E-001	9.6567996E-002	9.6512586E-002	1.093337528609176E+000	1.0552083E-004
2	0	0	0	8.983999773045070E-001	9.1562025E-002	9.1493301E-002	1.088717161070797E+000	9.9610326E-005
2	0	0	1	1.398999964658287E+000	8.6556040E-002	8.6485155E-002	1.078451785595732E+000	9.3270071E-005
2	0	0	0	1.899699952009541E+000	8.1549041E-002	8.1488162E-002	1.068110623849556E+000	8.7038374E-005
2	0	0	0	2.400399939360796E+000	7.6542102E-002	7.6477244E-002	1.059251469815088E+000	8.1008635E-005
2	0	0	1	2.900999926714576E+000	7.1536116E-002	7.1464553E-002	1.053858013352764E+000	7.5313495E-005
2	0	0	0	3.401599914068356E+000	6.6530131E-002	6.6468023E-002	1.052946336952421E+000	6.9987262E-005
2	0	0	1	3.902199901422136E+000	6.1524101E-002	6.1452210E-002	1.049016812690816E+000	6.4464402E-005
2	0	0	0	4.402799888775917E+000	5.6518085E-002	5.6440219E-002	1.044408534299158E+000	5.8946647E-005
2	0	0	1	4.903399876129697E+000	5.1512111E-002	5.1432710E-002	1.044375087637816E+000	5.3715041E-005
2	0	0	0	5.403999863483477E+000	4.6506125E-002	4.6436511E-002	1.040247888660618E+000	4.8305483E-005
2	0	0	1	5.904599850837258E+000	4.1500106E-002	4.1430470E-002	1.037135541237262E+000	4.2969012E-005
2	0	0	0	6.405299838188512E+000	3.6493141E-002	3.6413707E-002	1.038743233106851E+000	3.7824491E-005
2	0	0	0	6.905999825539766E+000	3.1486209E-002	3.1413902E-002	1.039694987633808E+000	3.2660875E-005
2	0	0	1	7.406599812893546E+000	2.6480207E-002	2.6404714E-002	1.035676596056482E+000	2.7346745E-005
2	0	0	0	7.907199800247326E+000	2.1474186E-002	2.1406468E-002	1.031245669637798E+000	2.2075328E-005
2	0	0	1	8.407799787601107E+000	1.6468218E-002	1.6403569E-002	1.030066583711811E+000	1.6896769E-005
2	0	0	0	8.908399774954887E+000	1.1462180E-002	1.1384614E-002	1.031307247059750E+000	1.1741035E-005
2	0	0	1	9.408999762308667E+000	6.4562061E-003	6.3800337E-003	1.027351319343239E+000	6.5545360E-006
2	0	0	0	9.909599749662448E+000	1.4497692E-003	1.3683706E-003	1.024228613041824E+000	1.4015243E-006
2	0	0	1	1.041019973701623E+001	-3.5557766E-003	-3.6452543E-003	1.025331868100858E+000	3.7375953E-006
2	0	0	0	1.091089972436748E+001	-8.5627632E-003	-8.6494749E-003	1.027315436016320E+000	8.8857387E-006
2	0	0	0	1.141159971171874E+001	-1.3569770E-002	-1.3640793E-002	1.023763145037297E+000	1.3964941E-005
2	0	0	1	1.191219969907252E+001	-1.8575810E-002	-1.8625174E-002	1.021037234167173E+000	1.9016996E-005
2	0	0	0	1.241279968642630E+001	-2.3581808E-002	-2.3644747E-002	1.020539619352451E+000	2.4130401E-005
2	0	0	1	1.291339967378008E+001	-2.8587800E-002	-2.8658936E-002	1.018179456182875E+000	2.9179939E-005
2	0	0	0	1.341399966113386E+001	-3.3593837E-002	-3.3666294E-002	1.017799168338634E+000	3.4265526E-005
2	0	0	1	1.391459964848764E+001	-3.8599845E-002	-3.8650848E-002	1.016583008637987E+000	3.9291794E-005
2	0	0	0	1.441519963584142E+001	-4.3605853E-002	-4.3679349E-002	1.014839366492410E+000	4.4327524E-005
2	0	0	1	1.491579962319520E+001	-4.8611853E-002	-4.8683222E-002	1.013515767694511E+000	4.9341212E-005
2	0	0	1	1.541659961054393E+001	-5.3619850E-002	-5.3682510E-002	1.010886580573580E+000	5.4266930E-005
2	0	0	0	1.591719959789771E+001	-5.8625840E-002	-5.8692992E-002	1.010594005273488E+000	5.9314785E-005
2	0	0	1	1.641779958525149E+001	-6.3631840E-002	-6.3710123E-002	1.009669200059138E+000	6.4326152E-005
2	0	0	0	1.691839957260527E+001	-6.8637885E-002	-6.8706900E-002	1.008038977272605E+000	6.9259237E-005
2	0	0	1	1.741899955995905E+001	-7.3643900E-002	-7.3704489E-002	1.009850735206610E+000	7.4430529E-005
2	0	0	0	1.791959954731283E+001	-7.8649938E-002	-7.8722641E-002	1.007326871326693E+000	7.9299432E-005
2	0	0	1	1.842019953466661E+001	-8.3655953E-002	-8.3735883E-002	1.002768645435105E+000	8.3967716E-005
2	0	0	0	1.892079952202039E+001	-8.8661961E-002	-8.8739082E-002	9.990435026316025E-001	8.8654204E-005
2	0	0	1	1.942149950937164E+001	-9.3668915E-002	-9.3741991E-002	9.992909313461027E-001	9.3675524E-005
2	0	0	1	1.992219949672290E+001	-9.8675951E-002	-9.8731495E-002	1.001069278741872E+000	9.8837067E-005
2	0	0	0	2.042279948407668E+001	-1.0368194E-001	-1.0376070E-001	1.000061878476071E+000	1.0376712E-004
2	0	0	1	2.092339947143046E+001	-1.0868797E-001	-1.0875712E-001	9.948684405810493E-001	1.0819902E-004
2	0	0	0	2.142399945878424E+001	-1.1369399E-001	-1.1375426E-001	9.943803241272455E-001	1.1311500E-004
2	0	0	1	2.192459944613802E+001	-1.1869998E-001	-1.1874494E-001	9.943661097926596E-001	1.1807594E-004
2	0	0	0	2.242519943349180E+001	-1.2370600E-001	-1.2377758E-001	9.909199453386579E-001	1.2265367E-004
2	0	0	1	2.292579942084558E+001	-1.2871203E-001	-1.2878518E-001	9.910323915680124E-001	1.2763028E-004
2	0	0	0	2.342639940819936E+001	-1.3371804E-001	-1.3377807E-001	9.889172485764615E-001	1.3229543E-004
2	0	0	1	2.392709939555061E+001	-1.3872500E-001	-1.3879760E-001	9.870739002423001E-001	1.3700349E-004
2	0	0	1	2.442779938290187E+001	-1.4373203E-001	-1.4381725E-001	9.879492600931270E-001	1.4208414E-004
2	0	0	0	2.492839937025565E+001	-1.4873804E-001	-1.4882188E-001	9.868207234266855E-001	1.4686050E-004
2	0	0	1	2.542899935760943E+001	-1.5374410E-001	-1.5382688E-001	9.833601239978851E-001	1.5126722E-004
2	0	0	0	2.592959934496321E+001	-1.5875009E-001	-1.5883975E-001	9.812469386249800E-001	1.5586101E-004
2	0	0	1	2.643019933231699E+001	-1.6375609E-001	-1.6385604E-001	9.802913592658844E-001	1.6062666E-004
2	0	0	0	2.693079931967077E+001	-1.6876210E-001	-1.6885129E-001	9.802088922390535E-001	1.6550953E-004
2	0	0	1	2.743139930702455E+001	-1.7376815E-001	-1.7386803E-001	9.783112376234793E-001	1.7009705E-004
2	0	0	0	2.793199929437833E+001	-1.7877416E-001	-1.7886610E-001	9.765774587049250E-001	1.7467661E-004
2	0	0	1	2.843269928172958E+001	-1.8378113E-001	-1.8388186E-001	9.732496467655078E-001	1.7896296E-004
2	0	0	1	2.893339926908084E+001	-1.8878813E-001	-1.8889087E-001	9.715418299737930E-001	1.8351538E-004
2	0	0	0	2.943399925643462E+001	-1.9379413E-001	-1.9389592E-001	9.731250761762187E-001	1.8868498E-004
2	0	0	1	2.993459924378840E+001	-1.9880015E-001	-1.9890131E-001	9.717297499695006E-001	1.9327832E-004
2	0	0	0	3.043519923114218E+001	-2.0380621E-001	-2.0391552E-001	9.684785798735902E-001	1.9748781E-004
2	0	0	1	3.093579921849596E+001	-2.0881216E-001	-2.0891997E-001	9.636760440993930E-001	2.0133118E-004
2	0	0	0	3.143639920584974E+001	-2.1381824E-001	-2.1391381E-001	9.625328776311348E-001	2.0589908E-004
2	0	0	1	3.193699919320352E+001	-2.1882422E-001	-2.1893066E-001	9.624411502237717E-001	2.1070788E-004
2	0	0	0	3.243769918055477E+001	-2.2383118E-001	-2.2393428E-001	9.603917282136987E-001	2.1506463E-004
2	0	0	0	3.293839916790603E+001	-2.2883818E-001	-2.2894655E-001	9.572536209732982E-001	2.1915992E-004
2	0	0	1	3.343899915525981E+001	-2.3384421E-001	-2.3395060E-001	9.566637278846187E-001	2.2381205E-004
2	0	0	0	3.393959914261359E+001	-2.3885021E-001	-2.3896791E-001	9.553735803698835E-001	2.2830363E-004
2	0	0	1	3.444019912996737E+001	-2.4385624E-001	-2.4396096E-001	9.543023171681946E-001	2.3281251E-004
2	0	0	0	3.494079911732115E+001	-2.4886225E-001	-2.4893905E-001	9.526931509723973E-001	2.3716253E-004
2	0	0	1	3.544139910467493E+001	-2.5386825E-001	-2.5395599E-001	9.491539963355287E-001	2.4104334E-004
2	0	0	0	3.594199909202871E+001	-2.5887424E-001	-2.5896150E-001	9.456567850469160E-001	2.4488871E-004
2	0	0	1	3.644259907938249E+001	-2.6388031E-001	-2.6397857E-001	9.442781782550478E-001	2.4926921E-004
2	0	0	0	3.694329906673374E+001	-2.6888725E-001	-2.6898736E-001	9.436668105633470E-001	2.5383444E-004
2	0	0	0	3.744399905408500E+001	-2.7389428E-001	-2.7396509E-001	9.393107621475583E-001	2.5733837E-004
2	0	0	1	3.794459904143878E+001	-2.7890033E-001	-2.7898398E-001	9.368859924309838E-001	2.6137618E-004
2	0	0	0	3.844519902879256E+001	-2.8390631E-001	-2.8400069E-001	9.366608571286292E-001	2.6601233E-004
2	0	0	1	3.894579901614634E+001	-2.8891230E-001	-2.8898871E-001	9.355466312694469E-001	2.7036242E-004
2	0	0	0	3.944639900350012E+001	-2.9391834E-001	-2.9399851E-001	9.295483628362096E-001	2.7328584E-004
2	0	0	1	3.994699899085390E+001	-2.9892442E-001	-2.9901069E-001	9.278934617207355E-001	2.7745008E-004
2	0	0	0	4.044759897820768E+001	-3.0393046E-001	-3.0401111E-001	9.266765079255310E-001	2.8171996E-004
2	0	0	1	4.094819896556146E+001	-3.0893651E-001	-3.0903170E-001	9.222181763200581E-001	2.8499463E-004
2	0	0	0	4.144889895291271E+001	-3.1394339E-001	-3.1403756E-001	9.202928193378757E-001	2.8900651E-004
2	0	0	0	4.194959894026397E+001	-3.1895047E-001	-3.1904399E-001	9.197948560001081E-001	2.9345503E-004
2	0	0	1	4.245019892761775E+001	-3.2395646E-001	-3.2404342E-001	9.156639372423125E-001	2.9671489E-004
2	0	0	0	4.295079891497153E+001	-3.2896248E-001	-3.2903701E-001	9.115396456146030E-001	2.9993028E-004
2	0	0	1	4.345139890232531E+001	-3.3396849E-001	-3.3403701E-001	9.096008034313856E-001	3.0384032E-004
2	0	0	0	4.395199888967909E+001	-3.3897448E-001	-3.3905604E-001	9.072467638717820E-001	3.0760749E-004
2	0	0	1	4.445259887703287E+001	-3.4398049E-001	-3.4404173E-001	9.031488527153222E-001	3.1072090E-004
2	0	0	0	4.495319886438665E+001	-3.4898654E-001	-3.4906954E-001	8.994148364356335E-001	3.1395833E-004
2	0	0	1	4.545379885174043E+001	-3.5399249E-001	-3.5407394E-001	8.957262973215041E-001	3.1715335E-004
2	0	0	1	4.595459883908916E+001	-3.5900047E-001	-3.5908934E-001	8.933915600495563E-001	3.2080739E-004
2	0	0	0	4.645519882644294E+001	-3.6400646E-001	-3.6409631E-001	8.919076907751861E-001	3.2474031E-004
2	0	0	1	4.695579881379672E+001	-3.6901248E-001	-3.6911204E-001	8.869014716803054E-001	3.2736603E-004
2	0	0	0	4.745639880115050E+001	-3.7401849E-001	-3.7411979E-001	8.818676134157819E-001	3.2992414E-004
2	0	0	1	4.795699878850428E+001	-3.7902457E-001	-3.7911820E-001	8.806605793601463E-001	3.3387446E-004
2	0	0	0	4.845759877585806E+001	-3.8403058E-001	-3.8413095E-001	8.767172721594199E-001	3.3677425E-004
2	0	0	1	4.895819876321184E+001	-3.8903660E-001	-3.8912728E-001	8.724180871030622E-001	3.3948169E-004
2	0	0	0	4.945879875056562E+001	-3.9404267E-001	-3.9411503E-001	8.686584659850922E-001	3.4235136E-004
2	0	0	1	4.995949873791687E+001	-3.9904964E-001	-3.9914382E-001	8.642034329677788E-001	3.4494145E-004
2	0	0	1	5.046019872526813E+001	-4.0405661E-001	-4.0415075E-001	8.591502227683190E-001	3.4722622E-004
2	0	0	0	5.096079871262191E+001	-4.0906262E-001	-4.0913737E-001	8.573096692064546E-001	3.5075741E-004
2	0	0	1	5.146139869997569E+001	-4.1406861E-001	-4.1415268E-001	8.529372851415813E-001	3.5324626E-004
2	0	0	0	5.196199868732947E+001	-4.1907459E-001	-4.1915536E-001	8.476896703276875E-001	3.5531368E-004
2	0	0	1	5.246259867468325E+001	-4.2408061E-001	-4.2415905E-001	8.449700203949764E-001	3.5840168E-004
2	0	0	0	5.296319866203703E+001	-4.2908666E-001	-4.2915756E-001	8.395891153231583E-001	3.6031601E-004
2	0	0	1	5.346379864939081E+001	-4.3409261E-001	-4.3417531E-001	8.328915857031018E-001	3.6162097E-004
2	0	0	0	5.396439863674459E+001	-4.3909863E-001	-4.3918213E-001	8.309805159036774E-001	3.6495179E-004
2	0	0	1	5.446509862409584E+001	-4.4410557E-001	-4.4420075E-001	8.254330290427561E-001	3.6665797E-004
2	0	0	1	5.496579861144710E+001	-4.4911259E-001	-4.4919100E-001	8.194974055556299E-001	3.6811086E-004
2	0	0	0	5.546639859880088E+001	-4.5411861E-001	-4.5421526E-001	8.140242893134690E-001	3.6974225E-004
2	0	0	1	5.596699858615466E+001	-4.5912462E-001	-4.5921737E-001	8.083502234378042E-001	3.7120847E-004
2	0	0	0	5.646759857350844E+001	-4.6413067E-001	-4.6421742E-001	8.030391643496628E-001	3.7278477E-004
2	0	0	1	5.696819856086222E+001	-4.6913669E-001	-4.6921965E-001	7.986106304954830E-001	3.7472381E-004
2	0	0	0	5.746879854821600E+001	-4.7414276E-001	-4.7422901E-001	7.924024981484594E-001	3.7578025E-004
2	0	0	1	5.796939853556978E+001	-4.7914875E-001	-4.7924802E-001	7.842039584857954E-001	3.7582818E-004
2	0	0	0	5.846999852292356E+001	-4.8415473E-001	-4.8425364E-001	7.796416709499532E-001	3.7754432E-004
2	0	0	1	5.897069851027481E+001	-4.8916173E-001	-4.8926830E-001	7.740941142181219E-001	3.7873970E-004
2	0	0	1	5.947139849762607E+001	-4.9416873E-001	-4.9427304E-001	7.669562964843362E-001	3.7908583E-004
2	0	0	0	5.997199848497985E+001	-4.9917471E-001	-4.9927410E-001	7.615671373456472E-001	3.8023075E-004
2	0	0	1	6.047259847233363E+001	-5.0418067E-001	-5.0428516E-001	7.542072799947785E-001	3.8033555E-004
2	0	0	0	6.097319845968741E+001	-5.0918669E-001	-5.0930512E-001	7.476978088790318E-001	3.8080633E-004
2	0	0	1	6.147379844704119E+001	-5.1419276E-001	-5.1431525E-001	7.401667959709055E-001	3.8067906E-004
2	0	0	0	6.197439843439497E+001	-5.1919878E-001	-5.1932293E-001	7.338913270729144E-001	3.8112659E-004
2	0	0	1	6.247499842174875E+001	-5.2420479E-001	-5.2433169E-001	7.289923666917701E-001	3.8223379E-004
2	0	0	0	6.297559840910253E+001	-5.2921081E-001	-5.2931195E-001	7.196686506536771E-001	3.8092921E-004
2	0	0	0	6.347639839645126E+001	-5.3421879E-001	-5.3433692E-001	7.112852956678650E-001	3.8006599E-004
2	0	0	1	6.397699838380504E+001	-5.3922480E-001	-5.3933978E-001	7.038229087416961E-001	3.7959969E-004
2	0	0	0	6.447759837115882E+001	-5.4423082E-001	-5.4433781E-001	6.951006638335793E-001	3.7836959E-004
2	0	0	1	6.497819835851260E+001	-5.4923677E-001	-5.4934376E-001	6.889963882442096E-001	3.7849587E-004
2	0	0	0	6.547879834586638E+001	-5.5424285E-001	-5.5436420E-001	6.796275079327501E-001	3.7676116E-004
2	0	0	1	6.597939833322016E+001	-5.5924892E-001	-5.5938327E-001	6.712144999807759E-001	3.7546616E-004
2	0	0	0	6.647999832057394E+001	-5.6425500E-001	-5.6434155E-001	6.638283765350415E-001	3.7462593E-004
2	0	0	1	6.698059830792772E+001	-5.6926101E-001	-5.6937206E-001	6.533966896787966E-001	3.7202582E-004
2	0	0	0	6.748129829527898E+001	-5.7426798E-001	-5.7438701E-001	6.447279913130002E-001	3.7032340E-004
2	0	0	0	6.798199828263023E+001	-5.7927501E-001	-5.7939613E-001	6.373799948333589E-001	3.6929551E-004
2	0	0	1	6.848259826998401E+001	-5.8428079E-001	-5.8438599E-001	6.271981440590597E-001	3.6652581E-004
2	0	0	0	6.898319825733779E+001	-5.8928698E-001	-5.8938593E-001	6.165435411725326E-001	3.6338207E-004
2	0	0	1	6.948379824469157E+001	-5.9429300E-001	-5.9439760E-001	6.081371906742081E-001	3.6147528E-004
2	0	0	0	6.998439823204535E+001	-5.9929913E-001	-5.9940863E-001	5.989884777113454E-001	3.5903885E-004
2	0	0	1	7.048499821939913E+001	-6.0430497E-001	-6.0442191E-001	5.874886765794898E-001	3.5509103E-004
2	0	0	0	7.098559820675291E+001	-6.0931104E-001	-6.0941368E-001	5.779750839296893E-001	3.5222594E-004
2	0	0	1	7.148619819410669E+001	-6.1431700E-001	-6.1444414E-001	5.680540654600561E-001	3.4903749E-004
2	0	0	0	7.198689818145795E+001	-6.1932409E-001	-6.1944062E-001	5.570929064397580E-001	3.4508598E-004
2	0	0	0	7.248759816880920E+001	-6.2433094E-001	-6.2444627E-001	5.476938431000726E-001	3.4200537E-004
2	0	0	1	7.298819815616298E+001	-6.2933707E-001	-6.2946117E-001	5.351009362822068E-001	3.3682527E-004
2	0	0	0	7.348879814351676E+001	-6.3434303E-001	-6.3445598E-001	5.242546098937435E-001	3.3261647E-004
2	0	0	1	7.398939813087054E+001	-6.3934922E-001	-6.3946098E-001	5.143995775160146E-001	3.2893845E-004
2	0	0	0	7.448999811822432E+001	-6.4435518E-001	-6.4445186E-001	5.026207426461324E-001	3.2391486E-004
2	0	0	1	7.499059810557810E+001	-6.4936119E-001	-6.4945626E-001	4.904157169272976E-001	3.1850356E-004
2	0	0	0	7.550879809248727E+001	-6.5454334E-001	-6.5458518E-001	4.796506718923879E-001	3.1397221E-004
2	0	0	1	7.602699807939644E+001	-6.5972525E-001	-6.5976429E-001	4.674660279832191E-001	3.0841739E-004
2	0	0	0	7.652759806675022E+001	-6.6473126E-001	-6.6475731E-001	4.548825489077366E-001	3.0238650E-004
2	0	0	1	7.702819805410400E+001	-6.6973722E-001	-6.6979092E-001	4.431195862242995E-001	2.9679749E-004
2	0	0	0	7.752879804145778E+001	-6.7474329E-001	-6.7477649E-001	4.316946268112871E-001	2.9129739E-004
2	0	0	1	7.802939802881156E+001	-6.7974907E-001	-6.7979199E-001	4.193779138557154E-001	2.8508974E-004
2	0	0	0	7.852999801616534E+001	-6.8475527E-001	-6.8478453E-001	4.060430428695749E-001	2.7805200E-004
2	0	0	1	7.903059800351912E+001	-6.8976116E-001	-6.8980539E-001	3.936126543342506E-001	2.7151612E-004
2	0	0	0	7.953119799087290E+001	-6.9476730E-001	-6.9479638E-001	3.817252604106107E-001	2.6522134E-004
2	0	0	0	8.003199797822163E+001	-6.9977516E-001	-6.9981468E-001	3.687288824559856E-001	2.5804189E-004
2	0	0	1	8.053259796557541E+001	-7.0478129E-001	-7.0481175E-001	3.556294351383338E-001	2.5065179E-004
2	0	0	0	8.103319795292919E+001	-7.0978719E-001	-7.0981646E-001	3.425999864014602E-001	2.4318311E-004
2	0	0	1	8.153379794028297E+001	-7.1479326E-001	-7.1483129E-001	3.301075656996550E-001	2.3597122E-004
2	0	0	0	8.203439792763675E+001	-7.1979916E-001	-7.1984285E-001	3.172235708362816E-001	2.2835111E-004
2	0	0	1	8.253499791499053E+001	-7.2480541E-001	-7.2484773E-001	3.035990941094475E-001	2.2006311E-004
2	0	0	0	8.303559790234431E+001	-7.2981125E-001	-7.2983545E-001	2.900830975666926E-001	2.1171293E-004
2	0	0	1	8.353619788969809E+001	-7.3481739E-001	-7.3485047E-001	2.772942033645798E-001	2.0376977E-004
2	0	0	0	8.403689787704934E+001	-7.3982447E-001	-7.3984247E-001	2.634766157640542E-001	1.9493118E-004
2	0	0	0	8.453759786440060E+001	-7.4483138E-001	-7.4486071E-001	2.494529369310865E-001	1.8580769E-004
2	0	0	1	8.503819785175438E+001	-7.4983752E-001	-7.4986708E-001	2.361854818107676E-001	1.7710772E-004
2	0	0	0	8.553879783910816E+001	-7.5484324E-001	-7.5487840E-001	2.224121101318419E-001	1.6789410E-004
2	0	0	1	8.603939782646194E+001	-7.5984943E-001	-7.5988269E-001	2.088589232638862E-001	1.5870828E-004
2	0	0	0	8.653999781381572E+001	-7.6485527E-001	-7.6488787E-001	1.949599782743583E-001	1.4912253E-004
2	0	0	1	8.704059780116950E+001	-7.6986146E-001	-7.6990294E-001	1.812948309919011E-001	1.3957942E-004
2	0	0	0	8.754119778852328E+001	-7.7486718E-001	-7.7490765E-001	1.676368758134350E-001	1.2990310E-004
2	0	0	1	8.804179777587706E+001	-7.7987343E-001	-7.7991420E-001	1.540836885619736E-001	1.2017206E-004
2	0	0	0	8.854249776322831E+001	-7.8488022E-001	-7.8491974E-001	1.400551074266210E-001	1.0993202E-004
2	0	0	0	8.904319775057957E+001	-7.8988737E-001	-7.8993636E-001	1.260583575636878E-001	9.9578079E-005
2	0	0	1	8.954379773793335E+001	-7.9489326E-001	-7.9494035E-001	1.124312239281762E-001	8.9376117E-005
2	0	0	0	9.004439772528713E+001	-7.9989958E-001	-7.9994851E-001	9.844232598435920E-002	7.8748795E-005
2	0	0	1	9.054499771264091E+001	-8.0490541E-001	-8.0495805E-001	8.453854952602743E-002	6.8049987E-005
2	0	0	0	9.104559769999469E+001	-8.0991149E-001	-8.0997485E-001	7.084258155066103E-002	5.7380708E-005
2	0	0	1	9.154619768734847E+001	-8.1491750E-001	-8.1497812E-001	5.715160451135588E-002	4.6577308E-005
2	0	0	0	9.206439767425763E+001	-8.2009953E-001	-8.2015318E-001	4.276898006548802E-002	3.5077115E-005
2	0	0	1	9.258259766116680E+001	-8.2528150E-001	-8.2533997E-001	2.865207701901246E-002	2.3647704E-005
2	0	0	0	9.308319764852058E+001	-8.3028752E-001	-8.3034271E-001	1.475326069858635E-002	1.2250262E-005
2	0	0	1	9.360129763543227E+001	-8.3546853E-001	-8.3552390E-001	6.926225611169535E-004	5.7870272E-007
2	0	0	1	9.413689762190188E+001	-8.4082448E-001	-8.4086937E-001	-1.389280919604180E-002	1.1682037E-005
2	0	0	1	9.465509760881105E+001	-8.4600663E-001	-8.4605384E-001	-2.794143486914707E-002	2.3639957E-005
2	0	0	1	9.515579759616230E+001	-8.5101336E-001	-8.5108238E-001	-4.150761673607378E-002	3.5326400E-005
2	0	0	0	9.565639758351608E+001	-8.5601968E-001	-8.5606736E-001	-5.499823452410629E-002	4.7082194E-005
2	0	0	1	9.615699757086986E+001	-8.6102545E-001	-8.6108440E-001	-6.847904799494309E-002	5.8966241E-005
2	0	0	0	9.665759755822364E+001	-8.6603171E-001	-8.6609912E-001	-8.190305572747886E-002	7.0936163E-005
2	0	0	1	9.715819754557742E+001	-8.7103742E-001	-8.7110227E-001	-9.508824075143285E-002	8.2831582E-005
2	0	0	0	9.767629753248912E+001	-8.7621874E-001	-8.7626833E-001	-1.088823122888047E-001	9.5410120E-005
2	0	0	0	9.819449751939828E+001	-8.8140047E-001	-8.8143909E-001	-1.225921322382353E-001	1.0805749E-004
2	0	0	0	9.869519750674954E+001	-8.8640755E-001	-8.8645291E-001	-1.356695754766482E-001	1.2026469E-004
2	0	0	1	9.919579749410332E+001	-8.9141333E-001	-8.9146495E-001	-1.485673985749205E-001	1.3244263E-004
2	0	0	0	9.969639748145710E+001	-8.9641970E-001	-8.9647114E-001	-1.616119114066885E-001	1.4488041E-004
2	0	0	1	1.001969974688109E+002	-9.0142542E-001	-9.0147626E-001	-1.744113132212685E-001	1.5722765E-004
2	0	0	0	1.006975974561647E+002	-9.0643167E-001	-9.0647840E-001	-1.871077633136569E-001	1.6960915E-004
2	0	0	1	1.011981974435184E+002	-9.1143745E-001	-9.1150153E-001	-2.000521187109108E-001	1.8234781E-004
2	0	0	0	1.016987974308722E+002	-9.1644377E-001	-9.1648924E-001	-2.128862901727241E-001	1.9510799E-004
2	0	0	1	1.021994974182235E+002	-9.2145061E-001	-9.2150038E-001	-2.254840204292390E-001	2.0778361E-004
2	0	0	1	1.027001974055747E+002	-9.2645758E-001	-9.2651379E-001	-2.379076262433801E-001	2.2042470E-004
2	0	0	0	1.032007973929285E+002	-9.3146366E-001	-9.3152112E-001	-2.501876105312855E-001	2.3305505E-004
2	0	0	1	1.037013973802823E+002	-9.3646961E-001	-9.3652499E-001	-2.622847172645253E-001	2.4563618E-004
2	0	0	0	1.042019973676361E+002	-9.4147581E-001	-9.4152784E-001	-2.749904990744682E-001	2.5891120E-004
2	0	0	1	1.047025973549898E+002	-9.4648147E-001	-9.4653964E-001	-2.869298802540943E-001	2.7159051E-004
2	0	0	0	1.052031973423436E+002	-9.5148784E-001	-9.5154512E-001	-2.990323865340423E-001	2.8454280E-004
2	0	0	1	1.057037973296974E+002	-9.5649344E-001	-9.5650989E-001	-3.107528885563076E-001	2.9723821E-004
2	0	0	0	1.062043973170512E+002	-9.6149975E-001	-9.6153879E-001	-3.226317718830325E-001	3.1022297E-004
2	0	0	1	1.067050973044024E+002	-9.6650630E-001	-9.6655923E-001	-3.347080055056361E-001	3.2351512E-004
2	0	0	1	1.072057972917537E+002	-9.7151381E-001	-9.7156560E-001	-3.467430985058781E-001	3.3688368E-004
2	0	0	0	1.077063972791075E+002	-9.7651947E-001	-9.7657889E-001	-3.585250565393521E-001	3.5012802E-004
2	0	0	1	1.082069972664613E+002	-9.8152566E-001	-9.8158532E-001	-3.694220701686515E-001	3.6261929E-004
2	0	0	0	1.087075972538150E+002	-9.8653138E-001	-9.8658019E-001	-3.805404700197368E-001	3.7543368E-004
2	0	0	1	1.092081972411688E+002	-9.9153769E-001	-9.9157768E-001	-3.924316031724855E-001	3.8912642E-004
2	0	0	0	1.097087972285226E+002	-9.9654353E-001	-9.9657327E-001	-4.039584844206292E-001	4.0257422E-004
2	0	0	1	1.100066972209970E+002	-9.9952102E-001	-9.9954945E-001	-4.108249521349892E-001	4.1063986E-004
2	0	0	0	1.100521972198476E+002	-1.0000215E+000	-1.0000379E+000	-4.092079252004623E-001	4.0922343E-004