EC-Lab ASCII FILE
Nb header lines : 55                          

I-V Characterization

Run on channel : 1 (SN 6514)
User : 
CE vs. WE compliance from -10 V to 10 V
Electrode connection : standard
Ewe ctrl range : min = -1.10 V, max = 0.20 V
Safety Limits :
	Do not start on E overload
Acquisition started on : 06/15/2016 17:22:47
Saved on :
	File : B125-G54-UN-G-D1GB-C1 FW 10mVs dark_C01.mpr
	Directory : E:\EC-Lab measurements\B125-G54-UN-G-D1GB\
	Host : 10.0.2.15
Device : VSP (SN 0295)
Address : USB
EC-Lab for windows v11.01 (software)
Internet server v11.00 (firmware)
Command interpretor v11.00 (firmware)
Electrode material : 
Initial state : 
Electrolyte : 
Comments : 
Electrode surface area : 0.001 cm²
Characteristic mass : 0.001 g
Equivalent Weight : 0.000 g/eq.
Density : 0.000 g/cm3
tR (h:m:s)          0:00:0.0000         
dER/dt (mV/h)       0.0                 
dER (mV)            0                   
dtR (s)             0.0000              
dE/dt               10.000              
dE/dt unit          mV/s                
Ei (V)              0.100               
vs.                 Ref                 
EL (V)              -1.000              
vs.                 Ref                 
record              <I>                 
dI                  0.000               
unit dI             µA                  
tI (s)              0.1000              
step percent        100                 
N                   100                 
E range min (V)     -1.100              
E range max (V)     0.200               
I Range             Auto                
I Range min         Unset               
I Range max         Unset               
I Range init        Unset               
Bandwidth           5                   

mode	ox/red	error	control changes	time/s	control/V	Ewe/V	<I>/mA	P/W
2	0	0	0	8.499999785271939E-002	9.9694870E-002	9.9689059E-002	1.176498821005225E-003	1.1728406E-007
2	0	0	1	3.552999910243670E-001	9.6991025E-002	9.6975625E-002	5.434750722032172E-004	5.2703836E-008
2	0	0	1	8.733999779360602E-001	9.1810025E-002	9.1790996E-002	1.453851993861409E-004	1.3345052E-008
2	0	0	0	1.373999965289840E+000	8.6803973E-002	8.6792007E-002	5.490930589443512E-005	4.7656887E-009
2	0	0	1	1.874599952643621E+000	8.1798010E-002	8.1793256E-002	2.565107758823226E-005	2.0980853E-009
2	0	0	1	2.375399939992349E+000	7.6790057E-002	7.6762594E-002	1.293725264747250E-005	9.9309705E-010
2	0	0	0	2.875999927346129E+000	7.1784079E-002	7.1757987E-002	5.868637469004861E-006	4.2112161E-010
2	0	0	1	3.376599914699909E+000	6.6778108E-002	6.6757075E-002	1.432329932400488E-006	9.5618159E-011
2	0	0	0	3.877199902053690E+000	6.1772082E-002	6.1762992E-002	-1.781436889426639E-006	1.1002687E-010
2	0	0	1	4.377799889407470E+000	5.6766104E-002	5.6729574E-002	-4.257235438162994E-006	2.4151114E-010
2	0	0	0	4.878399876761250E+000	5.1760089E-002	5.1734626E-002	-6.387936047079754E-006	3.3047748E-010
2	0	0	1	5.378999864115031E+000	4.6754073E-002	4.6728365E-002	-8.290807617285294E-006	3.8741588E-010
2	0	0	1	5.879799851463758E+000	4.1746154E-002	4.1730084E-002	-9.955465740248067E-006	4.1544243E-010
2	0	0	0	6.380399838817539E+000	3.6740147E-002	3.6716558E-002	-1.135445176145481E-005	4.1689638E-010
2	0	0	1	6.880999826171319E+000	3.1734139E-002	3.1706475E-002	-1.267694525205120E-005	4.0194126E-010
2	0	0	0	7.381599813525099E+000	2.6728163E-002	2.6696894E-002	-1.392806202612034E-005	3.7183601E-010
2	0	0	1	7.882199800878880E+000	2.1722166E-002	2.1687945E-002	-1.501822288657391E-005	3.2571440E-010
2	0	0	0	8.382799788232660E+000	1.6716154E-002	1.6678153E-002	-1.612069796301551E-005	2.6886346E-010
2	0	0	1	8.883399775586440E+000	1.1710161E-002	1.1659484E-002	-1.717720886550584E-005	2.0027739E-010
2	0	0	1	9.384199762935168E+000	6.7022275E-003	6.6669276E-003	-1.809302977124385E-005	1.2062491E-010
2	0	0	0	9.884799750288948E+000	1.6958381E-003	1.6693221E-003	-1.901609806974911E-005	3.1743993E-011
2	0	0	1	1.038539973764273E+001	-3.3097691E-003	-3.3661863E-003	-1.989309229227993E-005	6.6963851E-011
2	0	0	0	1.088599972499651E+001	-8.3158044E-003	-8.3501255E-003	-2.075047196220742E-005	1.7326905E-010
2	0	0	1	1.138659971235029E+001	-1.3321819E-002	-1.3344339E-002	-2.155863848035875E-005	2.8768579E-010
2	0	0	0	1.188719969970407E+001	-1.8327856E-002	-1.8338971E-002	-2.238479912242862E-005	4.1051418E-010
2	0	0	1	1.238779968705785E+001	-2.3333851E-002	-2.3350032E-002	-2.325591869081002E-005	5.4302646E-010
2	0	0	1	1.288859967440658E+001	-2.8341802E-002	-2.8371204E-002	-2.408503902393930E-005	6.8332157E-010
2	0	0	0	1.338919966176036E+001	-3.3347838E-002	-3.3357140E-002	-2.486196629710889E-005	8.2932411E-010
2	0	0	1	1.388979964911414E+001	-3.8353838E-002	-3.8358647E-002	-2.564065637316818E-005	9.8354092E-010
2	0	0	0	1.439039963646792E+001	-4.3359850E-002	-4.3378215E-002	-2.642838742787412E-005	1.1464163E-009
2	0	0	1	1.489099962382170E+001	-4.8365887E-002	-4.8396867E-002	-2.718058728603269E-005	1.3154553E-009
2	0	0	0	1.539159961117548E+001	-5.3371880E-002	-5.3409535E-002	-2.796169393061584E-005	1.4934211E-009
2	0	0	1	1.589229959852673E+001	-5.8378901E-002	-5.8397755E-002	-2.862583092905651E-005	1.6716842E-009
2	0	0	1	1.639299958587799E+001	-6.3385859E-002	-6.3406579E-002	-2.952550311554375E-005	1.8721111E-009
2	0	0	0	1.689359957323177E+001	-6.8391882E-002	-6.8418592E-002	-3.026543058048703E-005	2.0707183E-009
2	0	0	1	1.739419956058555E+001	-7.3397920E-002	-7.3413797E-002	-3.104281024982199E-005	2.2789706E-009
2	0	0	0	1.789479954793933E+001	-7.8403912E-002	-7.8416362E-002	-3.172171786559441E-005	2.4875018E-009
2	0	0	1	1.839539953529311E+001	-8.3409958E-002	-8.3437778E-002	-3.254341941504868E-005	2.7153506E-009
2	0	0	0	1.889599952264689E+001	-8.8415965E-002	-8.8438436E-002	-3.331372203462625E-005	2.9462135E-009
2	0	0	1	1.939669950999814E+001	-9.3422972E-002	-9.3436107E-002	-3.418050492109113E-005	3.1936933E-009
2	0	0	1	1.989739949734940E+001	-9.8429970E-002	-9.8429196E-002	-3.510611616490574E-005	3.4554668E-009
2	0	0	0	2.039799948470318E+001	-1.0343595E-001	-1.0345506E-001	-3.606465263505276E-005	3.7310706E-009
2	0	0	1	2.089859947205696E+001	-1.0844197E-001	-1.0846330E-001	-3.702522409035141E-005	4.0158779E-009
2	0	0	0	2.139919945941074E+001	-1.1344800E-001	-1.1345579E-001	-3.797792514560565E-005	4.3088155E-009
2	0	0	1	2.189979944676452E+001	-1.1845399E-001	-1.1845391E-001	-3.892183779304807E-005	4.6104440E-009
2	0	0	0	2.240039943411830E+001	-1.2346005E-001	-1.2348115E-001	-3.975044167919665E-005	4.9084301E-009
2	0	0	1	2.290109942146955E+001	-1.2846702E-001	-1.2848467E-001	-4.078471397637095E-005	5.2402105E-009
2	0	0	1	2.340179940882081E+001	-1.3347399E-001	-1.3347206E-001	-4.185598042261921E-005	5.5866036E-009
2	0	0	0	2.390239939617459E+001	-1.3848004E-001	-1.3848056E-001	-4.306940316008948E-005	5.9642749E-009
2	0	0	1	2.440299938352837E+001	-1.4348605E-001	-1.4350492E-001	-4.424775290000815E-005	6.3497700E-009
2	0	0	0	2.490359937088215E+001	-1.4849210E-001	-1.4852317E-001	-4.525006272394099E-005	6.7206827E-009
2	0	0	1	2.540419935823593E+001	-1.5349810E-001	-1.5353656E-001	-4.659263789873555E-005	7.1536732E-009
2	0	0	0	2.590479934558971E+001	-1.5850410E-001	-1.5853837E-001	-4.776409154500004E-005	7.5724413E-009
2	0	0	1	2.640549933294096E+001	-1.6351114E-001	-1.6354713E-001	-4.895211811812471E-005	8.0059781E-009
2	0	0	1	2.690619932029222E+001	-1.6851810E-001	-1.6855432E-001	-5.032255067065621E-005	8.4820835E-009
2	0	0	0	2.740679930764600E+001	-1.7352411E-001	-1.7356142E-001	-5.177427623237712E-005	8.9860173E-009
2	0	0	1	2.790739929499978E+001	-1.7853014E-001	-1.7858100E-001	-5.324415260034093E-005	9.5083941E-009
2	0	0	0	2.840799928235356E+001	-1.8353614E-001	-1.8358752E-001	-5.493312852360957E-005	1.0085037E-008
2	0	0	1	2.890859926970734E+001	-1.8854217E-001	-1.8859677E-001	-5.660860836444756E-005	1.0676200E-008
2	0	0	0	2.940919925706112E+001	-1.9354823E-001	-1.9359472E-001	-5.831635461857722E-005	1.1289739E-008
2	0	0	1	2.990989924441237E+001	-1.9855522E-001	-1.9860740E-001	-6.000483278303248E-005	1.1917404E-008
2	0	0	1	3.041059923176363E+001	-2.0356216E-001	-2.0362633E-001	-6.180070551668401E-005	1.2584251E-008
2	0	0	0	3.091119921911741E+001	-2.0856822E-001	-2.0861962E-001	-6.388267454996138E-005	1.3327179E-008
2	0	0	1	3.141179920647119E+001	-2.1357422E-001	-2.1362217E-001	-6.583258716545015E-005	1.4063300E-008
2	0	0	0	3.191239919382497E+001	-2.1858020E-001	-2.1863447E-001	-6.794813548307937E-005	1.4855805E-008
2	0	0	1	3.241299918117875E+001	-2.2358625E-001	-2.2362807E-001	-7.010122605271858E-005	1.5676601E-008
2	0	0	0	3.291359916853253E+001	-2.2859226E-001	-2.2864126E-001	-7.231222478200263E-005	1.6533559E-008
2	0	0	1	3.341429915588378E+001	-2.3359925E-001	-2.3363565E-001	-7.449358425460077E-005	1.7404357E-008
2	0	0	1	3.391499914323504E+001	-2.3860621E-001	-2.3864287E-001	-7.681101673686621E-005	1.8330402E-008
2	0	0	0	3.441559913058882E+001	-2.4361223E-001	-2.4365091E-001	-7.965980961847214E-005	1.9409185E-008
2	0	0	1	3.491619911794260E+001	-2.4861823E-001	-2.4864359E-001	-8.270557787689746E-005	2.0564212E-008
2	0	0	0	3.541679910529638E+001	-2.5362429E-001	-2.5364804E-001	-8.572193357859797E-005	2.1743201E-008
2	0	0	1	3.591739909265016E+001	-2.5863028E-001	-2.5864276E-001	-8.922337201714190E-005	2.3076980E-008
2	0	0	0	3.641799908000394E+001	-2.6363632E-001	-2.6367068E-001	-9.229580882810003E-005	2.4335700E-008
2	0	0	1	3.691869906735519E+001	-2.6864329E-001	-2.6866043E-001	-9.588926921421379E-005	2.5761652E-008
2	0	0	1	3.741939905470645E+001	-2.7365032E-001	-2.7366444E-001	-9.943185784115518E-005	2.7210964E-008
2	0	0	0	3.791999904206023E+001	-2.7865630E-001	-2.7866590E-001	-1.032857469494450E-004	2.8782216E-008
2	0	0	1	3.842059902941401E+001	-2.8366232E-001	-2.8368059E-001	-1.076585475870120E-004	3.0540640E-008
2	0	0	0	3.892119901676779E+001	-2.8866833E-001	-2.8870064E-001	-1.123682046383309E-004	3.2440774E-008
2	0	0	1	3.942179900412157E+001	-2.9367441E-001	-2.9370895E-001	-1.176622107245258E-004	3.4558443E-008
2	0	0	0	3.992239899147535E+001	-2.9868045E-001	-2.9871294E-001	-1.228735752001715E-004	3.6703927E-008
2	0	0	1	4.042309897882660E+001	-3.0368739E-001	-3.0371091E-001	-1.285999811011756E-004	3.9057216E-008
2	0	0	1	4.092379896617786E+001	-3.0869436E-001	-3.0872539E-001	-1.346302383918555E-004	4.1563773E-008
2	0	0	0	4.142439895353164E+001	-3.1370035E-001	-3.1374091E-001	-1.418476059048021E-004	4.4503398E-008
2	0	0	1	4.192499894088542E+001	-3.1870642E-001	-3.1874034E-001	-1.490284674061401E-004	4.7501384E-008
2	0	0	0	4.242559892823920E+001	-3.2371250E-001	-3.2374766E-001	-1.562082993320389E-004	5.0572073E-008
2	0	0	1	4.292619891559298E+001	-3.2871851E-001	-3.2871893E-001	-1.641332790409750E-004	5.3953716E-008
2	0	0	0	4.342679890294676E+001	-3.3372453E-001	-3.3373064E-001	-1.724719341049617E-004	5.7559170E-008
2	0	0	1	4.392749889029801E+001	-3.3873150E-001	-3.3873358E-001	-1.812988033948783E-004	6.1411995E-008
2	0	0	1	4.442819887764927E+001	-3.4373841E-001	-3.4374118E-001	-1.914444638514879E-004	6.5807349E-008
2	0	0	0	4.492879886500305E+001	-3.4874445E-001	-3.4876704E-001	-2.021227739620358E-004	7.0493762E-008
2	0	0	1	4.542939885235683E+001	-3.5375053E-001	-3.5377392E-001	-2.129666866786855E-004	7.5342058E-008
2	0	0	0	4.592999883971061E+001	-3.5875660E-001	-3.5877287E-001	-2.262816062254896E-004	8.1183700E-008
2	0	0	1	4.643059882706439E+001	-3.6376262E-001	-3.6380172E-001	-2.397042649124230E-004	8.7204825E-008
2	0	0	0	4.693119881441817E+001	-3.6876857E-001	-3.6879641E-001	-2.540016709298578E-004	9.3674906E-008
2	0	0	1	4.743189880176942E+001	-3.7377548E-001	-3.7379816E-001	-2.688453819839329E-004	1.0049391E-007
2	0	0	1	4.793259878912068E+001	-3.7878245E-001	-3.7882200E-001	-2.859264539317903E-004	1.0831523E-007
2	0	0	0	4.843319877647446E+001	-3.8378856E-001	-3.8382941E-001	-3.033234170916671E-004	1.1642445E-007
2	0	0	1	4.893379876382824E+001	-3.8879463E-001	-3.8881952E-001	-3.232539315902380E-004	1.2568744E-007
2	0	0	0	4.943439875118202E+001	-3.9380065E-001	-3.9383861E-001	-3.441499104525250E-004	1.3553952E-007
2	0	0	1	4.993499873853580E+001	-3.9880663E-001	-3.9885312E-001	-3.665997363620219E-004	1.4621945E-007
2	0	0	0	5.043559872588958E+001	-4.0381262E-001	-4.0384322E-001	-3.915260884727481E-004	1.5811516E-007
2	0	0	1	5.093629871324083E+001	-4.0881950E-001	-4.0884551E-001	-4.180789978871834E-004	1.7092972E-007
2	0	0	1	5.143699870059208E+001	-4.1382664E-001	-4.1384783E-001	-4.460614880656299E-004	1.8460157E-007
2	0	0	0	5.193759868794587E+001	-4.1883266E-001	-4.1887113E-001	-4.755129368019407E-004	1.9917864E-007
2	0	0	1	5.243819867529965E+001	-4.2383865E-001	-4.2387429E-001	-5.076979729467792E-004	2.1520012E-007
2	0	0	0	5.293879866265343E+001	-4.2884466E-001	-4.2886007E-001	-5.421536017911233E-004	2.3250803E-007
2	0	0	1	5.343939865000721E+001	-4.3385062E-001	-4.3389064E-001	-5.808185293794572E-004	2.5201172E-007
2	0	0	0	5.393999863736099E+001	-4.3885660E-001	-4.3887421E-001	-6.226289867521159E-004	2.7325581E-007
2	0	0	1	5.444069862471224E+001	-4.4386360E-001	-4.4388762E-001	-6.677941470349964E-004	2.9642555E-007
2	0	0	1	5.494139861206349E+001	-4.4887060E-001	-4.4889295E-001	-7.160454515459189E-004	3.2142776E-007
2	0	0	0	5.544199859941727E+001	-4.5387670E-001	-4.5389903E-001	-7.683954659482625E-004	3.4877397E-007
2	0	0	1	5.594259858677106E+001	-4.5888269E-001	-4.5891976E-001	-8.232257041240823E-004	3.7779455E-007
2	0	0	0	5.644319857412484E+001	-4.6388865E-001	-4.6391866E-001	-8.832935868906232E-004	4.0977636E-007
2	0	0	1	5.694379856147862E+001	-4.6889463E-001	-4.6890756E-001	-9.485276012496731E-004	4.4477176E-007
2	0	0	0	5.744439854883240E+001	-4.7390068E-001	-4.7392908E-001	-1.018842342466587E-003	4.8285904E-007
2	0	0	1	5.794509853618365E+001	-4.7890764E-001	-4.7894016E-001	-1.093784768949099E-003	5.2385747E-007
2	0	0	1	5.844579852353490E+001	-4.8391473E-001	-4.8395351E-001	-1.174273377202308E-003	5.6829373E-007
2	0	0	0	5.894639851088868E+001	-4.8892075E-001	-4.8895603E-001	-1.260392770020970E-003	6.1627662E-007
2	0	0	1	5.944699849824246E+001	-4.9392667E-001	-4.9397749E-001	-1.355611185766908E-003	6.6964139E-007
2	0	0	0	5.994759848559625E+001	-4.9893266E-001	-4.9898186E-001	-1.456369699515004E-003	7.2670207E-007
2	0	0	1	6.044819847295003E+001	-5.0393873E-001	-5.0399321E-001	-1.564436082540911E-003	7.8846517E-007
2	0	0	0	6.094879846030381E+001	-5.0894481E-001	-5.0898033E-001	-1.680399763147102E-003	8.5529041E-007
2	0	0	1	6.144949844765506E+001	-5.1395184E-001	-5.1400107E-001	-1.803940098437661E-003	9.2722712E-007
2	0	0	1	6.195019843500631E+001	-5.1895881E-001	-5.1901728E-001	-1.936284567370656E-003	1.0049652E-006
2	0	0	0	6.245079842236009E+001	-5.2396482E-001	-5.2400249E-001	-2.079693708091412E-003	1.0897647E-006
2	0	0	1	6.295139840971387E+001	-5.2897066E-001	-5.2902031E-001	-2.231951744548766E-003	1.1807479E-006
2	0	0	0	6.345199839706765E+001	-5.3397679E-001	-5.3402746E-001	-2.394659435846841E-003	1.2788139E-006
2	0	0	1	6.395259838442144E+001	-5.3898269E-001	-5.3903461E-001	-2.572236692783079E-003	1.3865246E-006
2	0	0	0	6.445319837177522E+001	-5.4398888E-001	-5.4403734E-001	-2.760993580533184E-003	1.5020836E-006
2	0	0	1	6.495389835912647E+001	-5.4899585E-001	-5.4903626E-001	-2.962877316134378E-003	1.6267271E-006
2	0	0	1	6.545459834647772E+001	-5.5400294E-001	-5.5407524E-001	-3.177809369469001E-003	1.7607455E-006
2	0	0	0	6.595519833383150E+001	-5.5900890E-001	-5.5906427E-001	-3.409814291653480E-003	1.9063053E-006
2	0	0	1	6.645579832118528E+001	-5.6401485E-001	-5.6406218E-001	-3.653674260542070E-003	2.0608995E-006
2	0	0	0	6.695639830853906E+001	-5.6902093E-001	-5.6907076E-001	-3.917992085257869E-003	2.2296147E-006
2	0	0	1	6.745699829589284E+001	-5.7402688E-001	-5.7408828E-001	-4.199721321668314E-003	2.4110109E-006
2	0	0	0	6.795759828324663E+001	-5.7903296E-001	-5.7908618E-001	-4.498930719255910E-003	2.6052687E-006
2	0	0	1	6.845829827059788E+001	-5.8404011E-001	-5.8407331E-001	-4.821477334822744E-003	2.8160962E-006
2	0	0	1	6.895899825794913E+001	-5.8904690E-001	-5.8908540E-001	-5.160736098212701E-003	3.0401143E-006
2	0	0	0	6.945959824530291E+001	-5.9405297E-001	-5.9410596E-001	-5.525202275239879E-003	3.2825556E-006
2	0	0	1	6.996019823265669E+001	-5.9905887E-001	-5.9910709E-001	-5.911284274732614E-003	3.5414923E-006
2	0	0	0	7.046079822001047E+001	-6.0406500E-001	-6.0409790E-001	-6.324376029457748E-003	3.8205421E-006
2	0	0	1	7.096139820736425E+001	-6.0907102E-001	-6.0911983E-001	-6.759560765519652E-003	4.1173826E-006
2	0	0	0	7.146199819471803E+001	-6.1407715E-001	-6.1413974E-001	-7.225142381606708E-003	4.4372468E-006
2	0	0	1	7.196269818206929E+001	-6.1908418E-001	-6.1914283E-001	-7.716501808077494E-003	4.7776166E-006
2	0	0	1	7.246339816942054E+001	-6.2409097E-001	-6.2414604E-001	-8.238002907138831E-003	5.1417169E-006
2	0	0	0	7.296399815677432E+001	-6.2909710E-001	-6.2914544E-001	-8.787363554526306E-003	5.5285295E-006
2	0	0	1	7.346459814412810E+001	-6.3410300E-001	-6.3415498E-001	-9.372420187875652E-003	5.9435670E-006
2	0	0	0	7.396519813148188E+001	-6.3910913E-001	-6.3915271E-001	-9.989240277627140E-003	6.3846501E-006
2	0	0	1	7.448339811839105E+001	-6.4429134E-001	-6.4432317E-001	-1.067060312848442E-002	6.8753170E-006
2	0	0	0	7.500159810530022E+001	-6.4947313E-001	-6.4951664E-001	-1.139118697922335E-002	7.3987653E-006
2	0	0	1	7.550219809265400E+001	-6.5447921E-001	-6.5451139E-001	-1.212199168225972E-002	7.9339816E-006
2	0	0	0	7.600279808000778E+001	-6.5948504E-001	-6.5951109E-001	-1.288500125513159E-002	8.4978010E-006
2	0	0	1	7.650339806736156E+001	-6.6449118E-001	-6.6452336E-001	-1.369621095649207E-002	9.1014517E-006
2	0	0	0	7.700399805471534E+001	-6.6949713E-001	-6.6953808E-001	-1.454883487593470E-002	9.7409993E-006
2	0	0	1	7.750459804206912E+001	-6.7450327E-001	-6.7453867E-001	-1.544316806633614E-002	1.0417014E-005
2	0	0	0	7.800529802942037E+001	-6.7951035E-001	-6.7953593E-001	-1.638737957612424E-002	1.1135813E-005
2	0	0	0	7.850599801677163E+001	-6.8451715E-001	-6.8454158E-001	-1.737738669501043E-002	1.1895544E-005
2	0	0	1	7.900659800412541E+001	-6.8952328E-001	-6.8954259E-001	-1.841707567878773E-002	1.2699358E-005
2	0	0	0	7.950719799147919E+001	-6.9452906E-001	-6.9454592E-001	-1.950738900452226E-002	1.3548777E-005
2	0	0	1	8.000779797883297E+001	-6.9953531E-001	-6.9956076E-001	-2.063862677512324E-002	1.4437974E-005
2	0	0	0	8.050839796618675E+001	-7.0454115E-001	-7.0456427E-001	-2.182168473132098E-002	1.5374779E-005
2	0	0	1	8.100899795354053E+001	-7.0954734E-001	-7.0958948E-001	-2.306850223395418E-002	1.6369166E-005
2	0	0	0	8.150969794089178E+001	-7.1455431E-001	-7.1457607E-001	-2.436289285081383E-002	1.7409140E-005
2	0	0	0	8.201039792824304E+001	-7.1956122E-001	-7.1957916E-001	-2.571199772598987E-002	1.8501818E-005
2	0	0	1	8.251099791559682E+001	-7.2456729E-001	-7.2458702E-001	-2.711519671535045E-002	1.9647319E-005
2	0	0	0	8.301159790295060E+001	-7.2957313E-001	-7.2958010E-001	-2.857302987943450E-002	2.0846313E-005
2	0	0	1	8.351219789030438E+001	-7.3457932E-001	-7.3458546E-001	-3.008864090824495E-002	2.2102678E-005
2	0	0	0	8.401279787765816E+001	-7.3958540E-001	-7.3960823E-001	-3.166016447440456E-002	2.3416118E-005
2	0	0	1	8.451339786501194E+001	-7.4459141E-001	-7.4459946E-001	-3.329520986323992E-002	2.4791596E-005
2	0	0	0	8.501409785236319E+001	-7.4959838E-001	-7.4961239E-001	-3.498990905530258E-002	2.6228869E-005
2	0	0	0	8.551479783971445E+001	-7.5460523E-001	-7.5462401E-001	-3.673910481699416E-002	2.7724211E-005
2	0	0	1	8.601539782706823E+001	-7.5961137E-001	-7.5963688E-001	-3.854893797081127E-002	2.9283196E-005
2	0	0	0	8.651599781442201E+001	-7.6461720E-001	-7.6465005E-001	-4.041382975939783E-002	3.0902436E-005
2	0	0	1	8.701659780177579E+001	-7.6962346E-001	-7.6965761E-001	-4.234892373094412E-002	3.2594173E-005
2	0	0	0	8.751719778912957E+001	-7.7462959E-001	-7.7466547E-001	-4.432946750251049E-002	3.4340508E-005
2	0	0	1	8.801779777648335E+001	-7.7963537E-001	-7.7967143E-001	-4.637595204894468E-002	3.6158006E-005
2	0	0	0	8.851849776383460E+001	-7.8464258E-001	-7.8467995E-001	-4.849329191199847E-002	3.8051712E-005
2	0	0	0	8.901919775118586E+001	-7.8964919E-001	-7.8967804E-001	-5.066215692585024E-002	4.0006791E-005
2	0	0	1	8.951979773853964E+001	-7.9465550E-001	-7.9470795E-001	-5.287764323524713E-002	4.2022282E-005
2	0	0	0	9.002039772589342E+001	-7.9966134E-001	-7.9970169E-001	-5.517082060686518E-002	4.4120199E-005
2	0	0	1	9.052099771324720E+001	-8.0466747E-001	-8.0469429E-001	-5.752391064750101E-002	4.6289162E-005
2	0	0	0	9.102159770060098E+001	-8.0967361E-001	-8.0972528E-001	-5.993674208779809E-002	4.8532296E-005
2	0	0	1	9.152219768795476E+001	-8.1467932E-001	-8.1472623E-001	-6.240938097768489E-002	5.0846560E-005
2	0	0	0	9.202289767530601E+001	-8.1968647E-001	-8.1973821E-001	-6.493420672855654E-002	5.3229051E-005
2	0	0	0	9.252359766265727E+001	-8.2469332E-001	-8.2475793E-001	-6.752864319811669E-002	5.5694785E-005
2	0	0	1	9.302419765001105E+001	-8.2969958E-001	-8.2976091E-001	-7.018479466028715E-002	5.8236597E-005
2	0	0	0	9.352479763736483E+001	-8.3470547E-001	-8.3476669E-001	-7.289557339636332E-002	6.0850798E-005
2	0	0	1	9.402539762471861E+001	-8.3971149E-001	-8.3974457E-001	-7.567640576866952E-002	6.3548854E-005
2	0	0	0	9.452599761207239E+001	-8.4471768E-001	-8.4476215E-001	-7.850800270891767E-002	6.6320586E-005
2	0	0	1	9.502659759942617E+001	-8.4972334E-001	-8.4976661E-001	-8.139572335365342E-002	6.9167370E-005
2	0	0	0	9.552729758677742E+001	-8.5473049E-001	-8.5477155E-001	-8.434211808156800E-002	7.2093244E-005
2	0	0	0	9.602799757412868E+001	-8.5973734E-001	-8.5978556E-001	-8.733333038982272E-002	7.5087934E-005
2	0	0	1	9.652859756148246E+001	-8.6474353E-001	-8.6478585E-001	-9.038268119494225E-002	7.8161662E-005
2	0	0	0	9.702919754883624E+001	-8.6974972E-001	-8.6980748E-001	-9.354205561922613E-002	8.1363578E-005
2	0	0	1	9.752979753619002E+001	-8.7475544E-001	-8.7479109E-001	-9.670956686519916E-002	8.4600666E-005
2	0	0	0	9.803039752354380E+001	-8.7976164E-001	-8.7979263E-001	-9.994432617969240E-002	8.7930282E-005
2	0	0	1	9.854609751051612E+001	-8.8491845E-001	-8.8497269E-001	-1.033542473479041E-001	9.1465685E-005
2	0	0	1	9.906179749748844E+001	-8.9007562E-001	-8.9012748E-001	-1.068039011627311E-001	9.5069088E-005
2	0	0	0	9.956239748484222E+001	-8.9508146E-001	-8.9512545E-001	-1.102008034811668E-001	9.8643541E-005
2	0	0	1	1.000629974721960E+002	-9.0008759E-001	-9.0013915E-001	-1.136344332751806E-001	1.0228680E-004
2	0	0	0	1.005635974595498E+002	-9.0509385E-001	-9.0514612E-001	-1.171421108297799E-001	1.0603073E-004
2	0	0	1	1.010641974469036E+002	-9.1009951E-001	-9.1014349E-001	-1.206886815711019E-001	1.0984402E-004
2	0	0	0	1.015648974342548E+002	-9.1510671E-001	-9.1513699E-001	-1.242797874854698E-001	1.1373303E-004
2	0	0	0	1.020655974216061E+002	-9.2011338E-001	-9.2014927E-001	-1.278588385182782E-001	1.1764922E-004
2	0	0	1	1.025661974089599E+002	-9.2511964E-001	-9.2516893E-001	-1.315478177969496E-001	1.2170395E-004
2	0	0	0	1.030667973963136E+002	-9.3012559E-001	-9.3017477E-001	-1.352914677912640E-001	1.2584472E-004
2	0	0	1	1.035673973836674E+002	-9.3513167E-001	-9.3519038E-001	-1.390501320259352E-001	1.3003834E-004
2	0	0	0	1.040679973710212E+002	-9.4013774E-001	-9.4017720E-001	-1.428643625242905E-001	1.3431782E-004
2	0	0	1	1.045685973583750E+002	-9.4514346E-001	-9.4518524E-001	-1.467194282397535E-001	1.3867705E-004
2	0	0	0	1.050692973457262E+002	-9.5015073E-001	-9.5020008E-001	-1.506414697588538E-001	1.4313954E-004
2	0	0	0	1.055699973330775E+002	-9.5515740E-001	-9.5516944E-001	-1.545803508098649E-001	1.4765043E-004
2	0	0	1	1.060705973204313E+002	-9.6016359E-001	-9.6018267E-001	-1.585490043074018E-001	1.5223601E-004
2	0	0	0	1.065711973077850E+002	-9.6516967E-001	-9.6521276E-001	-1.625811850322800E-001	1.5692544E-004
2	0	0	1	1.070717972951388E+002	-9.7017556E-001	-9.7022557E-001	-1.666225330104931E-001	1.6166145E-004
2	0	0	0	1.075723972824926E+002	-9.7518182E-001	-9.7522789E-001	-1.707152037525774E-001	1.6648622E-004
2	0	0	1	1.080729972698464E+002	-9.8018754E-001	-9.8023731E-001	-1.748219945719973E-001	1.7136704E-004
2	0	0	0	1.085736972571976E+002	-9.8519480E-001	-9.8524714E-001	-1.789607934143915E-001	1.7632061E-004
2	0	0	0	1.090743972445489E+002	-9.9020147E-001	-9.9024957E-001	-1.831446380130370E-001	1.8135890E-004
2	0	0	1	1.095749972319027E+002	-9.9520767E-001	-9.9522948E-001	-1.873729714851753E-001	1.8647911E-004
2	0	0	0	1.099378972227350E+002	-9.9883580E-001	-9.9885017E-001	-1.904521511581887E-001	1.9023316E-004
2	0	0	1	1.100519972198526E+002	-9.9998629E-001	-1.0000565E+000	-1.914151422679424E-001	1.9142596E-004