EC-Lab ASCII FILE
Nb header lines : 55                          

I-V Characterization

Run on channel : 1 (SN 6514)
User : 
CE vs. WE compliance from -10 V to 10 V
Electrode connection : standard
Ewe ctrl range : min = -1.10 V, max = 0.20 V
Safety Limits :
	Do not start on E overload
Acquisition started on : 06/15/2016 18:34:37
Saved on :
	File : B125-G54-UN-G-D1GB-C8 FW 100mVs dark_C01.mpr
	Directory : E:\EC-Lab measurements\B125-G54-UN-G-D1GB\
	Host : 10.0.2.15
Device : VSP (SN 0295)
Address : USB
EC-Lab for windows v11.01 (software)
Internet server v11.00 (firmware)
Command interpretor v11.00 (firmware)
Electrode material : 
Initial state : 
Electrolyte : 
Comments : 
Electrode surface area : 0.001 cm²
Characteristic mass : 0.001 g
Equivalent Weight : 0.000 g/eq.
Density : 0.000 g/cm3
tR (h:m:s)          0:00:0.0000         
dER/dt (mV/h)       0.0                 
dER (mV)            0                   
dtR (s)             0.0000              
dE/dt               100.000             
dE/dt unit          mV/s                
Ei (V)              0.100               
vs.                 Ref                 
EL (V)              -1.000              
vs.                 Ref                 
record              <I>                 
dI                  0.000               
unit dI             µA                  
tI (s)              0.1000              
step percent        100                 
N                   100                 
E range min (V)     -1.100              
E range max (V)     0.200               
I Range             Auto                
I Range min         Unset               
I Range max         Unset               
I Range init        Unset               
Bandwidth           5                   

mode	ox/red	error	control changes	time/s	control/V	Ewe/V	<I>/mA	P/W
2	0	0	1	8.039999796892516E-002	9.6993521E-002	9.6957594E-002	1.024289405904710E-003	9.9312636E-008
2	0	0	0	1.056999973297934E-001	9.4465211E-002	9.4439171E-002	9.027866334735124E-004	8.5258421E-008
2	0	0	0	1.710999956776504E-001	8.7929122E-002	8.7871313E-002	7.163490944655584E-004	6.2946533E-008
2	0	0	1	2.363999940280337E-001	8.1398934E-002	8.1365474E-002	5.688729612725286E-004	4.6286619E-008
2	0	0	1	2.863999927649274E-001	7.6396704E-002	7.6362677E-002	4.736577788368602E-004	3.6169777E-008
2	0	0	0	3.364999914992950E-001	7.1386509E-002	7.1332723E-002	3.925024977486889E-004	2.7998272E-008
2	0	0	0	3.865999902336625E-001	6.6378236E-002	6.6340752E-002	3.266649402412117E-004	2.1671198E-008
2	0	0	0	4.365999889705563E-001	6.1375830E-002	6.1337084E-002	2.542169746160526E-004	1.5592928E-008
2	0	0	1	4.866999877049238E-001	5.6367833E-002	5.6317031E-002	2.046791018106868E-004	1.1526919E-008
2	0	0	1	5.367999864392914E-001	5.1357362E-002	5.1307015E-002	1.560101444464061E-004	8.0044149E-009
2	0	0	1	5.867999851761851E-001	4.6355389E-002	4.6315689E-002	1.148209111072421E-004	5.3180096E-009
2	0	0	1	6.367999839130789E-001	4.1359074E-002	4.1308694E-002	6.149739078707013E-005	2.5403768E-009
2	0	0	0	6.869999826449202E-001	3.6336713E-002	3.6286511E-002	2.338381711442850E-005	8.4851715E-010
2	0	0	0	7.369999813818140E-001	3.1336755E-002	3.1288620E-002	-8.273576962063399E-006	2.5886882E-010
2	0	0	0	7.869999801187078E-001	2.6338194E-002	2.6282815E-002	-3.646547403135124E-005	9.5841535E-010
2	0	0	1	8.371999788505491E-001	2.1315835E-002	2.1258324E-002	-5.993888596873571E-005	1.2742003E-009
2	0	0	1	8.871999775874428E-001	1.6318094E-002	1.6254900E-002	-8.715942996153508E-005	1.4167678E-009
2	0	0	1	9.371999763243366E-001	1.1317321E-002	1.1256408E-002	-1.125462116342117E-004	1.2668661E-009
2	0	0	0	9.872999750587041E-001	6.3056569E-003	6.2367506E-003	-1.358783602070192E-004	8.4743945E-010
2	0	0	0	1.037399973793072E+000	1.2990338E-003	1.2406625E-003	-1.566546412759843E-004	1.9435555E-010
2	0	0	0	1.087399972529965E+000	-3.7033611E-003	-3.7771370E-003	-1.773133921568891E-004	6.6973699E-010
2	0	0	1	1.137499971264333E+000	-8.7130331E-003	-8.7809758E-003	-1.986097670358331E-004	1.7439875E-009
2	0	0	1	1.187599969998701E+000	-1.3721895E-002	-1.3775445E-002	-2.169605162340336E-004	2.9887275E-009
2	0	0	1	1.237599968735594E+000	-1.8724302E-002	-1.8755518E-002	-2.324283372565020E-004	4.3593138E-009
2	0	0	0	1.287699967469962E+000	-2.3731761E-002	-2.3770170E-002	-2.550836686110120E-004	6.0633822E-009
2	0	0	0	1.337799966204329E+000	-2.8742639E-002	-2.8797064E-002	-2.733846822284029E-004	7.8726758E-009
2	0	0	0	1.387799964941223E+000	-3.3744227E-002	-3.3792853E-002	-2.879290870671895E-004	9.7299457E-009
2	0	0	0	1.437799963678117E+000	-3.8741175E-002	-3.8789745E-002	-3.063007543561676E-004	1.1881328E-008
2	0	0	1	1.487999962409958E+000	-4.3763574E-002	-4.3805450E-002	-3.230633867062384E-004	1.4151937E-008
2	0	0	1	1.537999961146852E+000	-4.8762985E-002	-4.8813175E-002	-3.322189703544390E-004	1.6216664E-008
2	0	0	1	1.587999959883746E+000	-5.3762134E-002	-5.3800400E-002	-3.305597655309299E-004	1.7784247E-008
2	0	0	0	1.638199958615587E+000	-5.8784347E-002	-5.8815606E-002	-3.314150791826342E-004	1.9492379E-008
2	0	0	0	1.688199957352481E+000	-6.3781686E-002	-6.3832000E-002	-3.511938891979692E-004	2.2417408E-008
2	0	0	0	1.738199956089375E+000	-6.8782844E-002	-6.8832956E-002	-3.675600926866095E-004	2.5300247E-008
2	0	0	1	1.788299954823742E+000	-7.3794171E-002	-7.3825568E-002	-3.766262909756478E-004	2.7804649E-008
2	0	0	1	1.838399953558110E+000	-7.8801356E-002	-7.8843832E-002	-3.842299118472026E-004	3.0294160E-008
2	0	0	1	1.888399952295003E+000	-8.3803780E-002	-8.3862387E-002	-4.095081643733182E-004	3.4342332E-008
2	0	0	0	1.938499951029371E+000	-8.8812873E-002	-8.8860221E-002	-4.125516967339862E-004	3.6659436E-008
2	0	0	0	1.988599949763739E+000	-9.3822084E-002	-9.3863115E-002	-4.193980174635997E-004	3.9366004E-008
2	0	0	0	2.038599948500632E+000	-9.8824568E-002	-9.8868534E-002	-4.349676599804273E-004	4.3004615E-008
2	0	0	1	2.088699947235000E+000	-1.0383155E-001	-1.0387415E-001	-4.566031261926177E-004	4.7429261E-008
2	0	0	1	2.138799945969367E+000	-1.0884300E-001	-1.0889256E-001	-4.656132036611176E-004	5.0701814E-008
2	0	0	1	2.188799944706261E+000	-1.1384419E-001	-1.1387953E-001	-4.790673708983534E-004	5.4555969E-008
2	0	0	1	2.238799943443155E+000	-1.1884167E-001	-1.1887433E-001	-4.957857838475918E-004	5.8936205E-008
2	0	0	0	2.288999942174996E+000	-1.2386402E-001	-1.2389706E-001	-5.109280544649828E-004	6.3302487E-008
2	0	0	0	2.338999940911890E+000	-1.2886286E-001	-1.2889789E-001	-5.559988165903472E-004	7.1667074E-008
2	0	0	0	2.388999939648784E+000	-1.3386235E-001	-1.3389456E-001	-5.945400323006369E-004	7.9605677E-008
2	0	0	1	2.439199938380625E+000	-1.3888477E-001	-1.3891108E-001	-6.064244636599598E-004	8.4239076E-008
2	0	0	1	2.489199937117519E+000	-1.4388163E-001	-1.4394251E-001	-6.183957823633988E-004	8.9013440E-008
2	0	0	1	2.539199935854413E+000	-1.4888336E-001	-1.4893582E-001	-6.308642567335182E-004	9.3958292E-008
2	0	0	0	2.589299934588780E+000	-1.5389392E-001	-1.5393873E-001	-6.333160625465514E-004	9.7491871E-008
2	0	0	0	2.639399933323148E+000	-1.5890183E-001	-1.5895997E-001	-6.672718443386607E-004	1.0606951E-007
2	0	0	0	2.689399932060041E+000	-1.6390401E-001	-1.6395089E-001	-7.180948437444396E-004	1.1773229E-007
2	0	0	1	2.739499930794409E+000	-1.6891268E-001	-1.6897328E-001	-7.092571971723536E-004	1.1984551E-007
2	0	0	1	2.789599929528777E+000	-1.7392249E-001	-1.7400131E-001	-7.730784364601978E-004	1.3451665E-007
2	0	0	1	2.839599928265670E+000	-1.7892505E-001	-1.7899907E-001	-8.536954140407546E-004	1.5281068E-007
2	0	0	0	2.889699927000038E+000	-1.8393146E-001	-1.8400696E-001	-8.348185961104468E-004	1.5361243E-007
2	0	0	0	2.939799925734405E+000	-1.8894343E-001	-1.8902329E-001	-8.264060255721191E-004	1.5620998E-007
2	0	0	0	2.989799924471299E+000	-1.9394398E-001	-1.9402643E-001	-8.473475697947236E-004	1.6440782E-007
2	0	0	0	3.039799923208193E+000	-1.9894172E-001	-1.9902849E-001	-8.891679883281742E-004	1.7696976E-007
2	0	0	1	3.089999921940034E+000	-2.0396422E-001	-2.0405377E-001	-9.370529186799956E-004	1.9120918E-007
2	0	0	1	3.139999920676928E+000	-2.0896278E-001	-2.0905454E-001	-9.528757817578865E-004	1.9920301E-007
2	0	0	1	3.189999919413822E+000	-2.1396297E-001	-2.1404661E-001	-9.430042951114898E-004	2.0184687E-007
2	0	0	0	3.240099918148189E+000	-2.1897505E-001	-2.1905924E-001	-9.125432893357932E-004	1.9990104E-007
2	0	0	0	3.290199916882557E+000	-2.2398150E-001	-2.2406012E-001	-9.373551306241980E-004	2.1002390E-007
2	0	0	0	3.340199915619451E+000	-2.2898370E-001	-2.2905961E-001	-9.444449018107363E-004	2.1633417E-007
2	0	0	1	3.390299914353818E+000	-2.3399378E-001	-2.3406573E-001	-9.873212370148602E-004	2.3109806E-007
2	0	0	1	3.440399913088186E+000	-2.3900221E-001	-2.3908985E-001	-1.086825021670965E-003	2.5984883E-007
2	0	0	1	3.490399911825079E+000	-2.4400450E-001	-2.4409989E-001	-1.096906507362666E-003	2.6775476E-007
2	0	0	0	3.540499910559447E+000	-2.4901254E-001	-2.4907701E-001	-1.179508742627115E-003	2.9378850E-007
2	0	0	0	3.590599909293815E+000	-2.5402313E-001	-2.5407267E-001	-1.191906549438772E-003	3.0283087E-007
2	0	0	0	3.640599908030708E+000	-2.5902519E-001	-2.5907683E-001	-1.239842385857185E-003	3.2121443E-007
2	0	0	0	3.690599906767602E+000	-2.6402122E-001	-2.6408684E-001	-1.237879530499596E-003	3.2690770E-007
2	0	0	1	3.740799905499443E+000	-2.6904374E-001	-2.6909861E-001	-1.270219774506141E-003	3.4181437E-007
2	0	0	1	3.790799904236337E+000	-2.7404371E-001	-2.7409372E-001	-1.189045006651594E-003	3.2590975E-007
2	0	0	1	3.840799902973231E+000	-2.7904239E-001	-2.7911860E-001	-1.250857441178685E-003	3.4913757E-007
2	0	0	0	3.890999901705072E+000	-2.8406462E-001	-2.8412709E-001	-1.377894316364129E-003	3.9149711E-007
2	0	0	0	3.940999900441966E+000	-2.8906259E-001	-2.8911668E-001	-1.436700060439104E-003	4.1537396E-007
2	0	0	0	3.990999899178860E+000	-2.9406303E-001	-2.9409838E-001	-1.448958801292501E-003	4.2613644E-007
2	0	0	1	4.041099897913227E+000	-2.9907477E-001	-2.9913101E-001	-1.476550733913649E-003	4.4168212E-007
2	0	0	1	4.091199896647595E+000	-3.0408183E-001	-3.0413660E-001	-1.539940310751262E-003	4.6835223E-007
2	0	0	1	4.141199895384489E+000	-3.0908397E-001	-3.0915517E-001	-1.550592485152765E-003	4.7937368E-007
2	0	0	0	4.191299894118856E+000	-3.1409356E-001	-3.1415418E-001	-1.569138092520961E-003	4.9295130E-007
2	0	0	0	4.241399892853224E+000	-3.1910267E-001	-3.1917426E-001	-1.619938329144768E-003	5.1704262E-007
2	0	0	0	4.291399891590117E+000	-3.2410502E-001	-3.2416090E-001	-1.728616565959372E-003	5.6034992E-007
2	0	0	1	4.341499890324485E+000	-3.2911223E-001	-3.2915884E-001	-1.713888067402053E-003	5.6414143E-007
2	0	0	1	4.391599889058853E+000	-3.3412349E-001	-3.3416772E-001	-1.823061119092010E-003	6.0920820E-007
2	0	0	1	4.441599887795746E+000	-3.3912471E-001	-3.3916429E-001	-1.854822744155102E-003	6.2908964E-007
2	0	0	1	4.491599886532640E+000	-3.4412181E-001	-3.4416652E-001	-1.968361421871494E-003	6.7744412E-007
2	0	0	0	4.541799885264481E+000	-3.4914425E-001	-3.4919390E-001	-2.002164701400575E-003	6.9914370E-007
2	0	0	0	4.591799884001375E+000	-3.5414377E-001	-3.5420063E-001	-2.086667874985133E-003	7.3909905E-007
2	0	0	0	4.641799882738269E+000	-3.5914260E-001	-3.5920018E-001	-2.186324977070137E-003	7.8532833E-007
2	0	0	1	4.691999881470110E+000	-3.6416501E-001	-3.6422527E-001	-2.211061339194794E-003	8.0532442E-007
2	0	0	1	4.741999880207004E+000	-3.6916226E-001	-3.6919966E-001	-2.419548627297239E-003	8.9329654E-007
2	0	0	1	4.791999878943898E+000	-3.7416348E-001	-3.7422216E-001	-2.393977889275561E-003	8.9587957E-007
2	0	0	0	4.842099877678265E+000	-3.7917474E-001	-3.7924907E-001	-2.388950680237530E-003	9.0600730E-007
2	0	0	0	4.892199876412633E+000	-3.8418227E-001	-3.8424700E-001	-2.460233448082640E-003	9.4533732E-007
2	0	0	0	4.942199875149527E+000	-3.8918447E-001	-3.8923767E-001	-2.497051154299446E-003	9.7194641E-007
2	0	0	1	4.992299873883894E+000	-3.9419344E-001	-3.9424849E-001	-2.582490571797325E-003	1.0181431E-006
2	0	0	1	5.042399872618262E+000	-3.9920300E-001	-3.9927661E-001	-2.631473065340697E-003	1.0506857E-006
2	0	0	1	5.092399871355155E+000	-4.0420499E-001	-4.0429017E-001	-2.724613828399156E-003	1.1015346E-006
2	0	0	0	5.142499870089523E+000	-4.0921217E-001	-4.0925646E-001	-2.790911922776654E-003	1.1421987E-006
2	0	0	0	5.192599868823891E+000	-4.1422391E-001	-4.1429102E-001	-2.857738068826735E-003	1.1839352E-006
2	0	0	0	5.242599867560784E+000	-4.1922498E-001	-4.1927427E-001	-2.993200431848839E-003	1.2549719E-006
2	0	0	0	5.292599866297678E+000	-4.2422217E-001	-4.2426336E-001	-3.046441127185979E-003	1.2924934E-006
2	0	0	1	5.342799865029519E+000	-4.2924482E-001	-4.2928830E-001	-3.143553487109610E-003	1.3494907E-006
2	0	0	1	5.392799863766413E+000	-4.3424323E-001	-4.3430379E-001	-3.223259689769454E-003	1.3998739E-006
2	0	0	1	5.442799862503307E+000	-4.3924299E-001	-4.3929824E-001	-3.354409706005645E-003	1.4735863E-006
2	0	0	0	5.492999861235148E+000	-4.4426548E-001	-4.4432214E-001	-3.390257074839094E-003	1.5063663E-006
2	0	0	0	5.542999859972042E+000	-4.4926247E-001	-4.4930023E-001	-3.520001091295764E-003	1.5815373E-006
2	0	0	0	5.592999858708936E+000	-4.5426390E-001	-4.5431146E-001	-3.593298542129919E-003	1.6324767E-006
2	0	0	1	5.643099857443303E+000	-4.5927483E-001	-4.5933643E-001	-3.679421376164366E-003	1.6900923E-006
2	0	0	1	5.693199856177671E+000	-4.6428239E-001	-4.6433863E-001	-3.782243096306925E-003	1.7562415E-006
2	0	0	1	5.743199854914565E+000	-4.6928456E-001	-4.6933240E-001	-3.866925759495418E-003	1.8148735E-006
2	0	0	0	5.793299853648932E+000	-4.7429329E-001	-4.7434089E-001	-4.010051830659736E-003	1.9021315E-006
2	0	0	0	5.843399852383300E+000	-4.7930351E-001	-4.7936550E-001	-4.119319036223479E-003	1.9746594E-006
2	0	0	0	5.893399851120193E+000	-4.8430577E-001	-4.8437381E-001	-4.266823280292258E-003	2.0667374E-006
2	0	0	1	5.943499849854561E+000	-4.8931205E-001	-4.8939285E-001	-4.310911954562680E-003	2.1097294E-006
2	0	0	1	5.993599848588929E+000	-4.9432412E-001	-4.9440345E-001	-4.443573898816180E-003	2.1969183E-006
2	0	0	1	6.043599847325822E+000	-4.9932435E-001	-4.9938944E-001	-4.494740537668449E-003	2.2446259E-006
2	0	0	1	6.093599846062716E+000	-5.0432259E-001	-5.0439191E-001	-4.668716822941999E-003	2.3548630E-006
2	0	0	0	6.143799844794557E+000	-5.0934500E-001	-5.0941861E-001	-4.776787025007994E-003	2.4333842E-006
2	0	0	0	6.193799843531451E+000	-5.1434350E-001	-5.1441032E-001	-4.861768905727475E-003	2.5009440E-006
2	0	0	0	6.243799842268345E+000	-5.1934320E-001	-5.1941401E-001	-5.107939793514447E-003	2.6531354E-006
2	0	0	1	6.293899841002712E+000	-5.2435595E-001	-5.2441305E-001	-5.194633748045236E-003	2.7241338E-006
2	0	0	1	6.343999839737080E+000	-5.2936172E-001	-5.2941406E-001	-5.365829165697444E-003	2.8407453E-006
2	0	0	1	6.393999838473974E+000	-5.3436434E-001	-5.3442615E-001	-5.489225097819281E-003	2.9335854E-006
2	0	0	0	6.444099837208341E+000	-5.3937453E-001	-5.3945881E-001	-5.658820022648725E-003	3.0527003E-006
2	0	0	0	6.494199835942709E+000	-5.4438323E-001	-5.4445785E-001	-5.753113278184854E-003	3.1323277E-006
2	0	0	0	6.544199834679603E+000	-5.4938507E-001	-5.4945970E-001	-6.137693422986812E-003	3.3724152E-006
2	0	0	1	6.594299833413970E+000	-5.5439341E-001	-5.5449861E-001	-6.235717157598797E-003	3.4576965E-006
2	0	0	1	6.644399832148338E+000	-5.5940348E-001	-5.5949324E-001	-6.281806382136573E-003	3.5146281E-006
2	0	0	1	6.694399830885232E+000	-5.6440544E-001	-5.6448174E-001	-6.440571489933222E-003	3.6355850E-006
2	0	0	1	6.744399829622125E+000	-5.6940216E-001	-5.6947333E-001	-6.668161874928261E-003	3.7973402E-006
2	0	0	0	6.794599828353967E+000	-5.7442451E-001	-5.7449752E-001	-6.854634918036284E-003	3.9379706E-006
2	0	0	0	6.844599827090860E+000	-5.7942444E-001	-5.7950109E-001	-7.104214982599458E-003	4.1169005E-006
2	0	0	0	6.894599825827754E+000	-5.8442295E-001	-5.8449066E-001	-7.084728267805835E-003	4.1409576E-006
2	0	0	1	6.944799824559595E+000	-5.8944541E-001	-5.8951372E-001	-7.294329317598304E-003	4.3001073E-006
2	0	0	1	6.994799823296489E+000	-5.9444273E-001	-5.9452230E-001	-7.493139948606287E-003	4.4548387E-006
2	0	0	1	7.044799822033383E+000	-5.9944379E-001	-5.9952062E-001	-7.637275286220421E-003	4.5787042E-006
2	0	0	0	7.094899820767751E+000	-6.0445553E-001	-6.0454208E-001	-7.795148011220623E-003	4.7124950E-006
2	0	0	0	7.144999819502118E+000	-6.0946256E-001	-6.0954332E-001	-8.299923676428914E-003	5.0591630E-006
2	0	0	0	7.194999818239012E+000	-6.1446470E-001	-6.1453599E-001	-8.513112463937225E-003	5.2316141E-006
2	0	0	1	7.245099816973379E+000	-6.1947441E-001	-6.1954838E-001	-8.723122959397912E-003	5.4043967E-006
2	0	0	1	7.295199815707747E+000	-6.2448281E-001	-6.2456757E-001	-8.940912785421961E-003	5.5842042E-006
2	0	0	1	7.345199814444641E+000	-6.2948531E-001	-6.2956744E-001	-8.993304516594608E-003	5.6618919E-006
2	0	0	0	7.395299813179008E+000	-6.3449299E-001	-6.3458794E-001	-9.260094872647978E-003	5.8763444E-006
2	0	0	0	7.445399811913376E+000	-6.3950419E-001	-6.3955766E-001	-9.463846042115198E-003	6.0526754E-006
2	0	0	0	7.495399810650270E+000	-6.4450538E-001	-6.4458311E-001	-9.655372365308487E-003	6.2236900E-006
2	0	0	0	7.560699809000653E+000	-6.5103185E-001	-6.5109032E-001	-1.018507212667880E-002	6.6314019E-006
2	0	0	1	7.625999807351036E+000	-6.5756243E-001	-6.5760303E-001	-1.059945711014254E-002	6.9702351E-006
2	0	0	0	7.676199806082877E+000	-6.6258472E-001	-6.6261536E-001	-1.080093389199274E-002	7.1568647E-006
2	0	0	0	7.726199804819771E+000	-6.6758418E-001	-6.6762185E-001	-1.109896102724456E-002	7.4099089E-006
2	0	0	0	7.776199803556665E+000	-6.7258358E-001	-6.7262012E-001	-1.143577733239803E-002	7.6919341E-006
2	0	0	1	7.826399802288506E+000	-6.7760575E-001	-6.7763251E-001	-1.184496274031346E-002	8.0265318E-006
2	0	0	1	7.876399801025400E+000	-6.8260318E-001	-6.8262881E-001	-1.206094892858761E-002	8.2331508E-006
2	0	0	1	7.926399799762294E+000	-6.8760407E-001	-6.8763977E-001	-1.232163185798724E-002	8.4728445E-006
2	0	0	0	7.976499798496661E+000	-6.9261533E-001	-6.9264787E-001	-1.251353523240120E-002	8.6674736E-006
2	0	0	0	8.026599797231029E+000	-6.9762278E-001	-6.9765747E-001	-1.285541948577540E-002	8.9686791E-006
2	0	0	0	8.076599795967923E+000	-7.0262504E-001	-7.0266318E-001	-1.353052958508544E-002	9.5074047E-006
2	0	0	1	8.126699794702290E+000	-7.0763409E-001	-7.0768863E-001	-1.388067967467635E-002	9.8231994E-006
2	0	0	1	8.176799793436658E+000	-7.1264398E-001	-7.1268189E-001	-1.445548174006595E-002	1.0302160E-005
2	0	0	1	8.226799792173551E+000	-7.1764606E-001	-7.1768510E-001	-1.470200954834622E-002	1.0551414E-005
2	0	0	0	8.276899790907919E+000	-7.2265267E-001	-7.2268671E-001	-1.512417634641630E-002	1.0930041E-005
2	0	0	0	8.326999789642286E+000	-7.2766453E-001	-7.2769129E-001	-1.563040172609369E-002	1.1374107E-005
2	0	0	0	8.376999788379180E+000	-7.3266530E-001	-7.3268372E-001	-1.605741466431987E-002	1.1765006E-005
2	0	0	0	8.426999787116074E+000	-7.3766303E-001	-7.3768342E-001	-1.647073411954440E-002	1.2150187E-005
2	0	0	1	8.477199785847915E+000	-7.4268538E-001	-7.4272066E-001	-1.696199959596628E-002	1.2598028E-005
2	0	0	1	8.527199784584809E+000	-7.4768442E-001	-7.4772280E-001	-1.716324875899253E-002	1.2833352E-005
2	0	0	1	8.577199783321703E+000	-7.5268388E-001	-7.5271016E-001	-1.756813613779729E-002	1.3223715E-005
2	0	0	0	8.627399782053544E+000	-7.5770617E-001	-7.5775558E-001	-1.812273072111979E-002	1.3732601E-005
2	0	0	0	8.677399780790438E+000	-7.6270276E-001	-7.6274651E-001	-1.851181864318466E-002	1.4119825E-005
2	0	0	0	8.727399779527332E+000	-7.6770461E-001	-7.6775384E-001	-1.895725862039027E-002	1.4554508E-005
2	0	0	1	8.777499778261699E+000	-7.7271533E-001	-7.7276599E-001	-1.937716071322332E-002	1.4974011E-005
2	0	0	1	8.827599776996067E+000	-7.7772343E-001	-7.7777648E-001	-2.016247687198824E-002	1.5681901E-005
2	0	0	1	8.877599775732961E+000	-7.8272545E-001	-7.8276724E-001	-2.056437980431758E-002	1.6097123E-005
2	0	0	0	8.927699774467328E+000	-7.8773397E-001	-7.8778464E-001	-2.100439287783207E-002	1.6546937E-005
2	0	0	0	8.977799773201696E+000	-7.9274404E-001	-7.9278910E-001	-2.161065395486239E-002	1.7132690E-005
2	0	0	0	9.027799771938589E+000	-7.9774606E-001	-7.9780555E-001	-2.213200250613412E-002	1.7657034E-005
2	0	0	1	9.077899770672957E+000	-8.0275279E-001	-8.0278814E-001	-2.276915781851963E-002	1.8278810E-005
2	0	0	1	9.127999769407324E+000	-8.0776507E-001	-8.0782342E-001	-2.340409208807248E-002	1.8906374E-005
2	0	0	1	9.177999768144218E+000	-8.1276560E-001	-8.1281483E-001	-2.397452602676681E-002	1.9486850E-005
2	0	0	1	9.227999766881112E+000	-8.1776327E-001	-8.1783515E-001	-2.453699738331691E-002	2.0067218E-005
2	0	0	0	9.278199765612953E+000	-8.2278591E-001	-8.2284886E-001	-2.505827823126511E-002	2.0619176E-005
2	0	0	0	9.328199764349847E+000	-8.2778376E-001	-8.2785201E-001	-2.574082547558348E-002	2.1309594E-005
2	0	0	0	9.378199763086741E+000	-8.3278406E-001	-8.3284968E-001	-2.637671530380889E-002	2.1967839E-005
2	0	0	1	9.428299761821108E+000	-8.3779651E-001	-8.3784544E-001	-2.700828574383720E-002	2.2628768E-005
2	0	0	1	9.478399760555476E+000	-8.4280300E-001	-8.4286195E-001	-2.776233034456710E-002	2.3399813E-005
2	0	0	1	9.528399759292370E+000	-8.4780502E-001	-8.4786868E-001	-2.846220407835953E-002	2.4132212E-005
2	0	0	0	9.578499758026737E+000	-8.5281533E-001	-8.5288590E-001	-2.918680646681726E-002	2.4893016E-005
2	0	0	0	9.628599756761105E+000	-8.5782343E-001	-8.5787612E-001	-3.003129117160935E-002	2.5763127E-005
2	0	0	0	9.678599755497999E+000	-8.6282581E-001	-8.6288273E-001	-3.070245066016908E-002	2.6492615E-005
2	0	0	1	9.728699754232366E+000	-8.6783391E-001	-8.6790198E-001	-3.135713982724275E-002	2.7214925E-005
2	0	0	1	9.778799752966734E+000	-8.7284470E-001	-8.7290949E-001	-3.200285601284197E-002	2.7935597E-005
2	0	0	1	9.828799751703627E+000	-8.7784654E-001	-8.7788725E-001	-3.256250836534175E-002	2.8586212E-005
2	0	0	1	9.878799750440521E+000	-8.8284278E-001	-8.8287419E-001	-3.309992707551315E-002	2.9223071E-005
2	0	0	0	9.928999749172363E+000	-8.8786542E-001	-8.8791519E-001	-3.390096033266432E-002	3.0101177E-005
2	0	0	0	9.978999747909256E+000	-8.9286482E-001	-8.9291871E-001	-3.463889396283815E-002	3.0929717E-005
2	0	0	0	1.002899974664615E+001	-8.9786369E-001	-8.9791173E-001	-3.537293925194612E-002	3.1761778E-005
2	0	0	1	1.007919974537799E+001	-9.0288621E-001	-9.0293849E-001	-3.638487945704261E-002	3.2853310E-005
2	0	0	1	1.012919974411489E+001	-9.0788418E-001	-9.0793723E-001	-3.717597133638739E-002	3.3753447E-005
2	0	0	1	1.017919974285178E+001	-9.1288441E-001	-9.1295052E-001	-3.795416000640728E-002	3.4650271E-005
2	0	0	0	1.022929974158615E+001	-9.1789651E-001	-9.1794032E-001	-3.870828082061409E-002	3.5531892E-005
2	0	0	0	1.027939974032051E+001	-9.2290288E-001	-9.2295361E-001	-3.962767795678451E-002	3.6574507E-005
2	0	0	0	1.032939973905741E+001	-9.2790520E-001	-9.2796779E-001	-4.067744149993291E-002	3.7747355E-005
2	0	0	1	1.037949973779178E+001	-9.3291509E-001	-9.3296897E-001	-4.152051567882453E-002	3.8737351E-005
2	0	0	1	1.042959973652614E+001	-9.3792421E-001	-9.3797672E-001	-4.225980711989152E-002	3.9638715E-005
2	0	0	1	1.047959973526304E+001	-9.4292635E-001	-9.4297779E-001	-4.284618611301760E-002	4.0403003E-005
2	0	0	0	1.052969973399740E+001	-9.4793397E-001	-9.4800162E-001	-4.381287342905771E-002	4.1534677E-005
2	0	0	0	1.057979973273177E+001	-9.5294458E-001	-9.5298523E-001	-4.459475875902941E-002	4.2498148E-005
2	0	0	0	1.062979973146867E+001	-9.5794594E-001	-9.5795733E-001	-4.561266459659752E-002	4.3694985E-005
2	0	0	0	1.067979973020556E+001	-9.6294320E-001	-9.6297979E-001	-4.669472486861004E-002	4.4966077E-005
2	0	0	1	1.072999972893740E+001	-9.6796566E-001	-9.6801615E-001	-4.754273985482410E-002	4.6022138E-005
2	0	0	1	1.077999972767429E+001	-9.7296506E-001	-9.7300488E-001	-4.849157294562201E-002	4.7182537E-005
2	0	0	1	1.082999972641119E+001	-9.7796416E-001	-9.7801292E-001	-4.940104927943578E-002	4.8314865E-005
2	0	0	0	1.088019972514303E+001	-9.8298669E-001	-9.8304081E-001	-5.052197483699528E-002	4.9665163E-005
2	0	0	0	1.093019972387992E+001	-9.8798341E-001	-9.8804164E-001	-5.124050568461325E-002	5.0627754E-005
2	0	0	0	1.098019972261682E+001	-9.9298471E-001	-9.9301279E-001	-5.227012170959484E-002	5.1904899E-005
2	0	0	1	1.102779972141434E+001	-9.9774575E-001	-9.9778169E-001	-5.322599535689543E-002	5.3107924E-005
2	0	0	1	1.105039972084342E+001	-1.0000215E+000	-1.0000951E+000	-5.388034321367741E-002	5.3885469E-005