EC-Lab ASCII FILE
Nb header lines : 55                          

I-V Characterization

Run on channel : 1 (SN 6514)
User : 
CE vs. WE compliance from -10 V to 10 V
Electrode connection : standard
Ewe ctrl range : min = -1.10 V, max = 0.20 V
Safety Limits :
	Do not start on E overload
Acquisition started on : 06/15/2016 19:31:00
Saved on :
	File : B125-G54-UN-G-D1GB-C11 BW 10mVs dark_C01.mpr
	Directory : E:\EC-Lab measurements\B125-G54-UN-G-D1GB\
	Host : 10.0.2.15
Device : VSP (SN 0295)
Address : USB
EC-Lab for windows v11.01 (software)
Internet server v11.00 (firmware)
Command interpretor v11.00 (firmware)
Electrode material : 
Initial state : 
Electrolyte : 
Comments : 
Electrode surface area : 0.001 cm²
Characteristic mass : 0.001 g
Equivalent Weight : 0.000 g/eq.
Density : 0.000 g/cm3
tR (h:m:s)          0:00:0.0000         
dER/dt (mV/h)       0.0                 
dER (mV)            0                   
dtR (s)             0.0000              
dE/dt               10.000              
dE/dt unit          mV/s                
Ei (V)              -1.000              
vs.                 Ref                 
EL (V)              0.100               
vs.                 Ref                 
record              <I>                 
dI                  0.000               
unit dI             µA                  
tI (s)              0.1000              
step percent        100                 
N                   100                 
E range min (V)     -1.100              
E range max (V)     0.200               
I Range             Auto                
I Range min         Unset               
I Range max         Unset               
I Range init        Unset               
Bandwidth           5                   

mode	ox/red	error	control changes	time/s	control/V	Ewe/V	<I>/mA	P/W
2	1	0	0	1.149999970948556E-001	-9.9942070E-001	-9.9957955E-001	-8.240040421485908E-001	8.2365761E-004
2	1	0	1	3.677999907085905E-001	-9.9689472E-001	-9.9692225E-001	-9.556953291356083E-001	9.5275394E-004
2	1	0	0	8.858999776202836E-001	-9.9171358E-001	-9.9178815E-001	-1.060250247518010E+000	1.0515436E-003
2	1	0	0	1.404099964529451E+000	-9.8653173E-001	-9.8664218E-001	-1.105189880535182E+000	1.0904269E-003
2	1	0	0	1.904799951880705E+000	-9.8152447E-001	-9.8161715E-001	-1.133645182258621E+000	1.1128056E-003
2	1	0	1	2.405399939234485E+000	-9.7651869E-001	-9.7661960E-001	-1.143057491079881E+000	1.1163324E-003
2	1	0	0	2.905999926588265E+000	-9.7151250E-001	-9.7161180E-001	-1.134197351878820E+000	1.1019995E-003
2	1	0	1	3.406599913942046E+000	-9.6650648E-001	-9.6661550E-001	-1.135759875624633E+000	1.0978431E-003
2	1	0	0	3.907199901295826E+000	-9.6150064E-001	-9.6158326E-001	-1.139845791169847E+000	1.0960567E-003
2	1	0	1	4.407799888649606E+000	-9.5649445E-001	-9.5657355E-001	-1.129955902651098E+000	1.0808859E-003
2	1	0	0	4.908399876003386E+000	-9.5148867E-001	-9.5158923E-001	-1.120455513140440E+000	1.0662134E-003
2	1	0	1	5.408999863357167E+000	-9.4648224E-001	-9.4658267E-001	-1.113202564829474E+000	1.0537383E-003
2	1	0	0	5.909699850708421E+000	-9.4147563E-001	-9.4158262E-001	-1.103894355749725E+000	1.0394077E-003
2	1	0	0	6.410399838059675E+000	-9.3646848E-001	-9.3656683E-001	-1.090383620966685E+000	1.0212171E-003
2	1	0	1	6.910999825413455E+000	-9.3146265E-001	-9.3157291E-001	-1.076012447125979E+000	1.0023840E-003
2	1	0	0	7.411599812767236E+000	-9.2645651E-001	-9.2655158E-001	-1.062974559174835E+000	9.8490075E-004
2	1	0	1	7.912199800121016E+000	-9.2145073E-001	-9.2154813E-001	-1.047780210025969E+000	9.6557988E-004
2	1	0	0	8.412799787474796E+000	-9.1644448E-001	-9.1654676E-001	-1.034172318783650E+000	9.4786729E-004
2	1	0	1	8.913399774828576E+000	-9.1143870E-001	-9.1155374E-001	-1.018719871102810E+000	9.2861790E-004
2	1	0	0	9.413999762182357E+000	-9.0643233E-001	-9.0654266E-001	-1.003864145190391E+000	9.1004570E-004
2	1	0	1	9.914599749536137E+000	-9.0142655E-001	-9.0152925E-001	-9.891637081416222E-001	8.9175999E-004
2	1	0	1	1.041539973688487E+001	-8.9641839E-001	-8.9651012E-001	-9.746126614610127E-001	8.7375013E-004
2	1	0	0	1.091599972423865E+001	-8.9141262E-001	-8.9149392E-001	-9.587067006147088E-001	8.5468119E-004
2	1	0	1	1.141659971159243E+001	-8.8640636E-001	-8.8651752E-001	-9.407012794683691E-001	8.3394814E-004
2	1	0	0	1.191719969894621E+001	-8.8140047E-001	-8.8149762E-001	-9.241492443947656E-001	8.1463536E-004
2	1	0	1	1.241779968629999E+001	-8.7639445E-001	-8.7650102E-001	-9.092740180276131E-001	7.9697958E-004
2	1	0	0	1.291839967365377E+001	-8.7138826E-001	-8.7152106E-001	-8.928057518296577E-001	7.7809900E-004
2	1	0	1	1.341899966100755E+001	-8.6638254E-001	-8.6649889E-001	-8.772954930245070E-001	7.6017558E-004
2	1	0	0	1.391959964836133E+001	-8.6137623E-001	-8.6148441E-001	-8.627389868365789E-001	7.4323616E-004
2	1	0	1	1.442029963571258E+001	-8.5636950E-001	-8.5647434E-001	-8.435979671407701E-001	7.2252000E-004
2	1	0	1	1.492099962306384E+001	-8.5136235E-001	-8.5148072E-001	-8.282182410689192E-001	7.0521189E-004
2	1	0	0	1.542159961041762E+001	-8.4635657E-001	-8.4646642E-001	-8.129503507345586E-001	6.8813516E-004
2	1	0	1	1.592219959777140E+001	-8.4135038E-001	-8.4144747E-001	-7.976630408315533E-001	6.7119155E-004
2	1	0	0	1.642279958512518E+001	-8.3634448E-001	-8.3647156E-001	-7.824424883955263E-001	6.5449090E-004
2	1	0	1	1.692339957247896E+001	-8.3133829E-001	-8.3147067E-001	-7.676121579855327E-001	6.3824700E-004
2	1	0	0	1.742399955983274E+001	-8.2633251E-001	-8.2646066E-001	-7.527166493920117E-001	6.2209071E-004
2	1	0	1	1.792459954718652E+001	-8.2132626E-001	-8.2143778E-001	-7.376497523283545E-001	6.0593337E-004
2	1	0	0	1.842519953454030E+001	-8.1632042E-001	-8.1643057E-001	-7.228198816222697E-001	5.9013226E-004
2	1	0	1	1.892589952189155E+001	-8.1131315E-001	-8.1141764E-001	-7.082831561496548E-001	5.7471346E-004
2	1	0	1	1.942659950924281E+001	-8.0630654E-001	-8.0641943E-001	-6.935971987487594E-001	5.5933028E-004
2	1	0	0	1.992719949659659E+001	-8.0130035E-001	-8.0140454E-001	-6.790074011473779E-001	5.4415961E-004
2	1	0	1	2.042779948395037E+001	-7.9629433E-001	-7.9640812E-001	-6.649245190503290E-001	5.2955130E-004
2	1	0	0	2.092839947130415E+001	-7.9128832E-001	-7.9139203E-001	-6.506143938103763E-001	5.1489106E-004
2	1	0	1	2.142899945865793E+001	-7.8628224E-001	-7.8637648E-001	-6.365183160079617E-001	5.0054304E-004
2	1	0	0	2.192959944601171E+001	-7.8127635E-001	-7.8137064E-001	-6.224243436916321E-001	4.8634410E-004
2	1	0	1	2.243019943336549E+001	-7.7627003E-001	-7.7637380E-001	-6.088134462175461E-001	4.7266681E-004
2	1	0	0	2.293079942071927E+001	-7.7126431E-001	-7.7137005E-001	-5.949677154249615E-001	4.5894028E-004
2	1	0	1	2.343149940807052E+001	-7.6625723E-001	-7.6636630E-001	-5.815451208915832E-001	4.4567659E-004
2	1	0	1	2.393219939542178E+001	-7.6125038E-001	-7.6134735E-001	-5.687216325738849E-001	4.3299471E-004
2	1	0	0	2.443279938277556E+001	-7.5624418E-001	-7.5633633E-001	-5.553881351668419E-001	4.2006021E-004
2	1	0	1	2.493339937012934E+001	-7.5123841E-001	-7.5130934E-001	-5.419185651505805E-001	4.0714847E-004
2	1	0	0	2.543399935748312E+001	-7.4623233E-001	-7.4630964E-001	-5.291452991239545E-001	3.9490624E-004
2	1	0	1	2.593459934483690E+001	-7.4122638E-001	-7.4130058E-001	-5.165365769463701E-001	3.8290885E-004
2	1	0	0	2.643519933219068E+001	-7.3622018E-001	-7.3629671E-001	-5.039148462436520E-001	3.7103085E-004
2	1	0	1	2.693579931954446E+001	-7.3121428E-001	-7.3130113E-001	-4.916000735369064E-001	3.5950769E-004
2	1	0	0	2.745399930645362E+001	-7.2603226E-001	-7.2608453E-001	-4.793408876269183E-001	3.4804200E-004
2	1	0	1	2.797219929336279E+001	-7.2085029E-001	-7.2087067E-001	-4.669342102106397E-001	3.3659919E-004
2	1	0	0	2.847279928071657E+001	-7.1584415E-001	-7.1587521E-001	-4.551371815111542E-001	3.2582143E-004
2	1	0	1	2.897339926807035E+001	-7.1083832E-001	-7.1087456E-001	-4.437141576161672E-001	3.1542510E-004
2	1	0	0	2.947399925542413E+001	-7.0583212E-001	-7.0587325E-001	-4.322456007849933E-001	3.0511062E-004
2	1	0	1	2.997459924277791E+001	-7.0082617E-001	-7.0086181E-001	-4.209601378966177E-001	2.9503487E-004
2	1	0	0	3.047519923013169E+001	-6.9582009E-001	-6.9585073E-001	-4.096918600648696E-001	2.8508439E-004
2	1	0	1	3.097589921748295E+001	-6.9081295E-001	-6.9085360E-001	-3.988199459186523E-001	2.7552620E-004
2	1	0	1	3.147659920483420E+001	-6.8580610E-001	-6.8582606E-001	-3.884094489896439E-001	2.6638134E-004
2	1	0	0	3.197719919218798E+001	-6.8079996E-001	-6.8082303E-001	-3.777592903416931E-001	2.5718723E-004
2	1	0	1	3.247779917954176E+001	-6.7579418E-001	-6.7582744E-001	-3.673096910391132E-001	2.4823798E-004
2	1	0	0	3.297839916689554E+001	-6.7078799E-001	-6.7084372E-001	-3.570376705803167E-001	2.3951648E-004
2	1	0	1	3.347899915424932E+001	-6.6578215E-001	-6.6582143E-001	-3.471493153616509E-001	2.3113945E-004
2	1	0	0	3.397959914160310E+001	-6.6077602E-001	-6.6081023E-001	-3.372638274482571E-001	2.2286738E-004
2	1	0	1	3.448019912895688E+001	-6.5577024E-001	-6.5580362E-001	-3.276692309698008E-001	2.1488666E-004
2	1	0	0	3.498079911631066E+001	-6.5076405E-001	-6.5081924E-001	-3.181978516753659E-001	2.0708928E-004
2	1	0	1	3.548149910366192E+001	-6.4575720E-001	-6.4580941E-001	-3.088047315374940E-001	1.9942901E-004
2	1	0	1	3.598219909101317E+001	-6.4075005E-001	-6.4080292E-001	-2.996393147699908E-001	1.9200974E-004
2	1	0	0	3.648279907836695E+001	-6.3574409E-001	-6.3581294E-001	-2.907965996888144E-001	1.8489224E-004
2	1	0	1	3.698339906572073E+001	-6.3073790E-001	-6.3079900E-001	-2.822001385026729E-001	1.7801157E-004
2	1	0	0	3.748399905307451E+001	-6.2573200E-001	-6.2579405E-001	-2.736286615645946E-001	1.7123520E-004
2	1	0	1	3.798459904042829E+001	-6.2072587E-001	-6.2079602E-001	-2.650196041102699E-001	1.6452311E-004
2	1	0	0	3.848519902778207E+001	-6.1571997E-001	-6.1578733E-001	-2.567158696342027E-001	1.5808237E-004
2	1	0	1	3.898579901513585E+001	-6.1071390E-001	-6.1078215E-001	-2.484602354886281E-001	1.5175507E-004
2	1	0	0	3.948639900248963E+001	-6.0570776E-001	-6.0577875E-001	-2.405077404395268E-001	1.4569447E-004
2	1	0	1	3.998709898984089E+001	-6.0070091E-001	-6.0075861E-001	-2.326294764622526E-001	1.3975416E-004
2	1	0	1	4.048779897719214E+001	-5.9569383E-001	-5.9575701E-001	-2.249215205217037E-001	1.3399858E-004
2	1	0	0	4.098839896454592E+001	-5.9068793E-001	-5.9074420E-001	-2.176248452030005E-001	1.2856061E-004
2	1	0	1	4.148899895189970E+001	-5.8568180E-001	-5.8573669E-001	-2.103168145321179E-001	1.2319027E-004
2	1	0	0	4.198959893925348E+001	-5.8067590E-001	-5.8073604E-001	-2.031652020917990E-001	1.1798536E-004
2	1	0	1	4.249019892660726E+001	-5.7566988E-001	-5.7573801E-001	-1.964541152122026E-001	1.1310610E-004
2	1	0	0	4.299079891396104E+001	-5.7066387E-001	-5.7072973E-001	-1.896388848961448E-001	1.0823255E-004
2	1	0	1	4.349139890131482E+001	-5.6565773E-001	-5.6572533E-001	-1.829369079631662E-001	1.0349204E-004
2	1	0	0	4.399199888866860E+001	-5.6065184E-001	-5.6072086E-001	-1.765263897773091E-001	9.8982033E-005
2	1	0	0	4.449279887601733E+001	-5.5564380E-001	-5.5572873E-001	-1.702192455559328E-001	9.4595729E-005
2	1	0	1	4.499339886337111E+001	-5.5063784E-001	-5.5069941E-001	-1.641954821290250E-001	9.0422356E-005
2	1	0	0	4.549399885072489E+001	-5.4563177E-001	-5.4569876E-001	-1.582614410384977E-001	8.6363070E-005
2	1	0	1	4.599459883807867E+001	-5.4062581E-001	-5.4068512E-001	-1.525906213271666E-001	8.2503480E-005
2	1	0	0	4.649519882543245E+001	-5.3561974E-001	-5.3568995E-001	-1.470693022992720E-001	7.8783545E-005
2	1	0	1	4.699579881278623E+001	-5.3061360E-001	-5.3067058E-001	-1.414972738072215E-001	7.5088443E-005
2	1	0	0	4.749639880014001E+001	-5.2560765E-001	-5.2566433E-001	-1.361420779721747E-001	7.1565031E-005
2	1	0	1	4.799699878749379E+001	-5.2060163E-001	-5.2066463E-001	-1.309786280126136E-001	6.8195943E-005
2	1	0	0	4.849769877484505E+001	-5.1559466E-001	-5.1566088E-001	-1.258874664571963E-001	6.4915243E-005
2	1	0	0	4.899839876219630E+001	-5.1058763E-001	-5.1065373E-001	-1.210442921599010E-001	6.1811719E-005
2	1	0	1	4.949899874955008E+001	-5.0558156E-001	-5.0565118E-001	-1.164109658644039E-001	5.8863341E-005
2	1	0	0	4.999959873690386E+001	-5.0057560E-001	-5.0064230E-001	-1.117333397518473E-001	5.5938435E-005
2	1	0	1	5.050019872425764E+001	-4.9556959E-001	-4.9563062E-001	-1.072257074549378E-001	5.3144344E-005
2	1	0	0	5.100079871161142E+001	-4.9056357E-001	-4.9062946E-001	-1.028923468535889E-001	5.0482016E-005
2	1	0	1	5.150139869896520E+001	-4.8555756E-001	-4.8561171E-001	-9.872422979352946E-002	4.7941641E-005
2	1	0	0	5.200199868631898E+001	-4.8055160E-001	-4.8060384E-001	-9.463177209209084E-002	4.5480392E-005
2	1	0	1	5.250259867367276E+001	-4.7554561E-001	-4.7559023E-001	-9.067454241245043E-002	4.3123928E-005
2	1	0	0	5.300329866102402E+001	-4.7053868E-001	-4.7057620E-001	-8.696944095490677E-002	4.0925748E-005
2	1	0	0	5.350399864837527E+001	-4.6553162E-001	-4.6557862E-001	-8.331703680961589E-002	3.8790629E-005
2	1	0	1	5.400459863572905E+001	-4.6052563E-001	-4.6058294E-001	-7.970216620539028E-002	3.6709458E-005
2	1	0	0	5.450519862308283E+001	-4.5551962E-001	-4.5556507E-001	-7.620344913176813E-002	3.4715631E-005
2	1	0	1	5.500579861043661E+001	-4.5051363E-001	-4.5054820E-001	-7.288526775755058E-002	3.2838325E-005
2	1	0	0	5.550639859779039E+001	-4.4550753E-001	-4.4555387E-001	-6.964403446143064E-002	3.1030169E-005
2	1	0	1	5.600699858514417E+001	-4.4050154E-001	-4.4053799E-001	-6.659331305841143E-002	2.9336885E-005
2	1	0	0	5.650759857249795E+001	-4.3549553E-001	-4.3553784E-001	-6.351520417444290E-002	2.7663275E-005
2	1	0	1	5.700819855985173E+001	-4.3048954E-001	-4.3052098E-001	-6.066223051046571E-002	2.6116362E-005
2	1	0	0	5.750889854720299E+001	-4.2548248E-001	-4.2553076E-001	-5.796891352488587E-002	2.4667555E-005
2	1	0	0	5.800959853455424E+001	-4.2047545E-001	-4.2052540E-001	-5.526216493537994E-002	2.3239145E-005
2	1	0	1	5.851019852190802E+001	-4.1546944E-001	-4.1550985E-001	-5.266242508137148E-002	2.1881757E-005
2	1	0	0	5.901079850926180E+001	-4.1046345E-001	-4.1049483E-001	-5.022936070286466E-002	2.0618892E-005
2	1	0	1	5.952889849617350E+001	-4.0528241E-001	-4.0531766E-001	-4.780252215171177E-002	1.9375206E-005
2	1	0	1	6.004699848308519E+001	-4.0010142E-001	-4.0013722E-001	-4.546294470025003E-002	1.8191417E-005
2	1	0	0	6.054759847043897E+001	-3.9509541E-001	-3.9514151E-001	-4.325885889154879E-002	1.7093371E-005
2	1	0	0	6.104839845778770E+001	-3.9008749E-001	-3.9011854E-001	-4.122224674708563E-002	1.6081563E-005
2	1	0	1	6.154899844514148E+001	-3.8508150E-001	-3.8510990E-001	-3.919945602212072E-002	1.5096099E-005
2	1	0	0	6.204959843249526E+001	-3.8007551E-001	-3.8010210E-001	-3.726540712650328E-002	1.4164660E-005
2	1	0	1	6.255019841984904E+001	-3.7506947E-001	-3.7510592E-001	-3.540789328685192E-002	1.3281710E-005
2	1	0	0	6.305079840720282E+001	-3.7006348E-001	-3.7010589E-001	-3.366991938853031E-002	1.2461435E-005
2	1	0	1	6.355139839455660E+001	-3.6505744E-001	-3.6509544E-001	-3.199002949190771E-002	1.1679414E-005
2	1	0	0	6.405199838191038E+001	-3.6005148E-001	-3.6009061E-001	-3.037332746847310E-002	1.0937150E-005
2	1	0	1	6.455259836926416E+001	-3.5504541E-001	-3.5506791E-001	-2.880520599926922E-002	1.0227805E-005
2	1	0	0	6.505329835661541E+001	-3.5003841E-001	-3.5007137E-001	-2.729203512299413E-002	9.5541600E-006
2	1	0	0	6.555399834396667E+001	-3.4503147E-001	-3.4505588E-001	-2.588997918247105E-002	8.9334899E-006
2	1	0	1	6.605459833132045E+001	-3.4002537E-001	-3.4004724E-001	-2.453401448799658E-002	8.3427240E-006
2	1	0	0	6.655519831867423E+001	-3.3501938E-001	-3.3503148E-001	-2.321823905993139E-002	7.7788409E-006
2	1	0	1	6.705579830602801E+001	-3.3001333E-001	-3.3002412E-001	-2.199648777879032E-002	7.2593716E-006
2	1	0	0	6.755639829338179E+001	-3.2500729E-001	-3.2503152E-001	-2.083060196521463E-002	6.7706023E-006
2	1	0	1	6.805699828073557E+001	-3.2000130E-001	-3.2004428E-001	-1.972452183331098E-002	6.3127204E-006
2	1	0	0	6.855759826808935E+001	-3.1499526E-001	-3.1503069E-001	-1.864760488853928E-002	5.8745677E-006
2	1	0	1	6.905819825544313E+001	-3.0998927E-001	-3.1002772E-001	-1.765162667247083E-002	5.4724937E-006
2	1	0	0	6.955889824279438E+001	-3.0498224E-001	-3.0500633E-001	-1.662171022362913E-002	5.0697267E-006
2	1	0	0	7.005959823014564E+001	-2.9997534E-001	-3.0000231E-001	-1.579280637246427E-002	4.7378785E-006
2	1	0	1	7.056019821749942E+001	-2.9496926E-001	-2.9500195E-001	-1.484389219056378E-002	4.3789773E-006
2	1	0	0	7.106079820485320E+001	-2.8996328E-001	-2.8998867E-001	-1.399971432932602E-002	4.0597583E-006
2	1	0	1	7.156139819220698E+001	-2.8495729E-001	-2.8499666E-001	-1.319520134211882E-002	3.7605882E-006
2	1	0	0	7.206199817956076E+001	-2.7995127E-001	-2.7999377E-001	-1.243738836130167E-002	3.4823913E-006
2	1	0	1	7.256259816691454E+001	-2.7494520E-001	-2.7496183E-001	-1.173309120748603E-002	3.2261523E-006
2	1	0	0	7.306319815426832E+001	-2.6993918E-001	-2.6996067E-001	-1.109155442744254E-002	2.9942835E-006
2	1	0	1	7.356379814162210E+001	-2.6493314E-001	-2.6496193E-001	-1.049366822100631E-002	2.7804226E-006
2	1	0	0	7.406449812897336E+001	-2.5992614E-001	-2.5998387E-001	-9.858298590987497E-003	2.5629986E-006
2	1	0	0	7.456519811632461E+001	-2.5491923E-001	-2.5494802E-001	-9.246776873972878E-003	2.3574476E-006
2	1	0	1	7.506579810367839E+001	-2.4991313E-001	-2.4994040E-001	-8.697104519819684E-003	2.1737578E-006
2	1	0	0	7.556639809103217E+001	-2.4490714E-001	-2.4496971E-001	-8.164095224855145E-003	1.9999561E-006
2	1	0	1	7.606699807838595E+001	-2.3990114E-001	-2.3995152E-001	-7.680524121675948E-003	1.8429535E-006
2	1	0	0	7.656759806573973E+001	-2.3489511E-001	-2.3494996E-001	-7.218816772979446E-003	1.6960607E-006
2	1	0	1	7.706819805309351E+001	-2.2988909E-001	-2.2993860E-001	-6.791313940882102E-003	1.5615852E-006
2	1	0	0	7.756879804044729E+001	-2.2488311E-001	-2.2493984E-001	-6.378026042439477E-003	1.4346722E-006
2	1	0	1	7.806939802780107E+001	-2.1987706E-001	-2.1992910E-001	-5.981285611665197E-003	1.3154588E-006
2	1	0	1	7.857019801514980E+001	-2.1486913E-001	-2.1491417E-001	-5.588168356552646E-003	1.2009766E-006
2	1	0	0	7.907079800250358E+001	-2.0986313E-001	-2.0992692E-001	-5.243897693265609E-003	1.1008353E-006
2	1	0	1	7.958889798941527E+001	-2.0468205E-001	-2.0474605E-001	-4.907260397259638E-003	1.0047422E-006
2	1	0	1	8.010699797632697E+001	-1.9950105E-001	-1.9954856E-001	-4.569690718512553E-003	9.1187519E-007
2	1	0	0	8.060759796368075E+001	-1.9449502E-001	-1.9455308E-001	-4.314269376244361E-003	8.3935436E-007
2	1	0	1	8.110819795103453E+001	-1.8948902E-001	-1.8954551E-001	-4.051471644603181E-003	7.6793827E-007
2	1	0	0	8.160889793838578E+001	-1.8448202E-001	-1.8452246E-001	-3.792879110166222E-003	6.9987141E-007
2	1	0	0	8.210959792573703E+001	-1.7947508E-001	-1.7951450E-001	-3.539468689712576E-003	6.3538596E-007
2	1	0	1	8.261019791309081E+001	-1.7446904E-001	-1.7452149E-001	-3.315052276435273E-003	5.7854788E-007
2	1	0	0	8.311079790044460E+001	-1.6946304E-001	-1.6950107E-001	-3.095556245880191E-003	5.2470006E-007
2	1	0	1	8.361139788779838E+001	-1.6445704E-001	-1.6449206E-001	-2.924947827201499E-003	4.8113066E-007
2	1	0	0	8.411199787515216E+001	-1.5945099E-001	-1.5949878E-001	-2.734056252836969E-003	4.3607864E-007
2	1	0	1	8.461259786250594E+001	-1.5444496E-001	-1.5446362E-001	-2.556736139716874E-003	3.9492272E-007
2	1	0	0	8.511319784985972E+001	-1.4943895E-001	-1.4946851E-001	-2.379357363615223E-003	3.5563900E-007
2	1	0	1	8.561379783721350E+001	-1.4443290E-001	-1.4447670E-001	-2.207270360516612E-003	3.1889914E-007
2	1	0	0	8.611449782456475E+001	-1.3942593E-001	-1.3943617E-001	-2.046088271951671E-003	2.8529871E-007
2	1	0	0	8.661519781191600E+001	-1.3441896E-001	-1.3443674E-001	-1.909213858854288E-003	2.5666850E-007
2	1	0	1	8.711579779926979E+001	-1.2941292E-001	-1.2943770E-001	-1.778224146865860E-003	2.3016925E-007
2	1	0	0	8.761639778662357E+001	-1.2440688E-001	-1.2443454E-001	-1.654469746059994E-003	2.0587318E-007
2	1	0	1	8.811699777397735E+001	-1.1940086E-001	-1.1939968E-001	-1.534065523832076E-003	1.8316693E-007
2	1	0	0	8.861759776133113E+001	-1.1439487E-001	-1.1440136E-001	-1.414744574599242E-003	1.6184870E-007
2	1	0	1	8.911819774868491E+001	-1.0938886E-001	-1.0940693E-001	-1.310762286657104E-003	1.4340648E-007
2	1	0	0	8.961879773603869E+001	-1.0438285E-001	-1.0437869E-001	-1.211447144558543E-003	1.2644927E-007
2	1	0	1	9.011939772339247E+001	-9.9376820E-002	-9.9377707E-002	-1.114487536841890E-003	1.1075522E-007
2	1	0	0	9.062009771074372E+001	-9.4369859E-002	-9.4384521E-002	-1.025409715424079E-003	9.6782806E-008
2	1	0	0	9.112079769809498E+001	-8.9362845E-002	-8.9398593E-002	-9.429855185714058E-004	8.4301575E-008
2	1	0	1	9.162139768544876E+001	-8.4356830E-002	-8.4386036E-002	-8.604173680373736E-004	7.2607207E-008
2	1	0	0	9.212199767280254E+001	-7.9350844E-002	-7.9363696E-002	-7.862062450471677E-004	6.2396232E-008
2	1	0	1	9.262259766015632E+001	-7.4344769E-002	-7.4363321E-002	-7.116996183420439E-004	5.2924346E-008
2	1	0	0	9.312319764751010E+001	-6.9338791E-002	-6.9358535E-002	-6.444178567618624E-004	4.4695877E-008
2	1	0	1	9.362379763486388E+001	-6.4332776E-002	-6.4370796E-002	-5.807417638426741E-004	3.7382808E-008
2	1	0	0	9.412439762221766E+001	-5.9326757E-002	-5.9328578E-002	-5.185586354712543E-004	3.0765346E-008
2	1	0	1	9.462499760957144E+001	-5.4320727E-002	-5.4338556E-002	-4.616473645479421E-004	2.5085251E-008
2	1	0	1	9.512579759692017E+001	-4.9312774E-002	-4.9343426E-002	-4.064959098295357E-004	2.0057900E-008
2	1	0	0	9.562639758427395E+001	-4.4306736E-002	-4.4335581E-002	-3.531568679081918E-004	1.5657415E-008
2	1	0	1	9.612699757162773E+001	-3.9300740E-002	-3.9314024E-002	-2.983790301818558E-004	1.1730481E-008
2	1	0	0	9.662759755898151E+001	-3.4294732E-002	-3.4315132E-002	-2.485645642413634E-004	8.5295255E-009
2	1	0	1	9.712819754633529E+001	-2.9288735E-002	-2.9311104E-002	-2.003963446780102E-004	5.8738379E-009
2	1	0	0	9.762879753368907E+001	-2.4282685E-002	-2.4307694E-002	-1.520483078177289E-004	3.6959438E-009
2	1	0	1	9.812939752104285E+001	-1.9276686E-002	-1.9312741E-002	-1.066349353154403E-004	2.0594129E-009
2	1	0	0	9.862999750839663E+001	-1.4270687E-002	-1.4307261E-002	-6.244701223737674E-005	8.9344571E-010
2	1	0	1	9.913069749574788E+001	-9.2636403E-003	-9.3087628E-003	-1.906709029489087E-005	1.7749102E-010
2	1	0	1	9.963139748309914E+001	-4.2566941E-003	-4.3070847E-003	2.334904177320998E-005	1.0056630E-010
2	1	0	0	1.001319974704529E+002	7.4930181E-004	7.2733912E-004	6.571334556106936E-005	4.7795889E-011
2	1	0	1	1.006325974578067E+002	5.7553193E-003	5.7270997E-003	1.075817393676977E-004	6.1613137E-010
2	1	0	0	1.011331974451605E+002	1.0761313E-002	1.0733922E-002	1.483239251155281E-004	1.5920975E-009
2	1	0	1	1.016337974325143E+002	1.5767310E-002	1.5741127E-002	1.885790294060942E-004	2.9684464E-009
2	1	0	0	1.021343974198680E+002	2.0773321E-002	2.0746825E-002	2.283848243050932E-004	4.7382600E-009
2	1	0	1	1.026349974072218E+002	2.5779299E-002	2.5747206E-002	2.664222433678880E-004	6.8596284E-009
2	1	0	0	1.031355973945756E+002	3.0785277E-002	3.0768275E-002	3.051745986480938E-004	9.3896961E-009
2	1	0	1	1.036362973819269E+002	3.5792243E-002	3.5746377E-002	3.444911539213825E-004	1.2314310E-008
2	1	0	1	1.041369973692781E+002	4.0799227E-002	4.0769350E-002	3.819069147648927E-004	1.5570096E-008
2	1	0	0	1.046375973566319E+002	4.5805234E-002	4.5772173E-002	4.202323151155452E-004	1.9234946E-008
2	1	0	1	1.051381973439857E+002	5.0811235E-002	5.0792150E-002	4.600436613659761E-004	2.3366606E-008
2	1	0	0	1.056387973313394E+002	5.5817209E-002	5.5790290E-002	4.986810298929960E-004	2.7821560E-008
2	1	0	1	1.061393973186932E+002	6.0823198E-002	6.0796343E-002	5.402507155002449E-004	3.2845268E-008
2	1	0	0	1.066399973060470E+002	6.5829210E-002	6.5826230E-002	5.805280779992237E-004	3.8213976E-008
2	1	0	1	1.071405972934008E+002	7.0835195E-002	7.0813075E-002	6.195847962632284E-004	4.3874703E-008
2	1	0	0	1.076411972807546E+002	7.5841196E-002	7.5821057E-002	6.621785548055923E-004	5.0207078E-008
2	1	0	1	1.081418972681058E+002	8.0848150E-002	8.0845185E-002	6.998611049942533E-004	5.6580401E-008
2	1	0	1	1.086425972554571E+002	8.5855164E-002	8.5844055E-002	7.426078163269723E-004	6.3748466E-008
2	1	0	0	1.091431972428109E+002	9.0861149E-002	9.0841509E-002	7.879722297014181E-004	7.1580587E-008
2	1	0	1	1.096437972301646E+002	9.5867127E-002	9.5843211E-002	8.273592714939295E-004	7.9296768E-008
2	1	0	0	1.099741972218180E+002	9.9171288E-002	9.9161029E-002	8.529405059919046E-004	8.4578460E-008
2	1	0	0	1.100545972197870E+002	9.9997252E-002	1.0001329E-001	8.589945168101347E-004	8.5910870E-008