EC-Lab ASCII FILE
Nb header lines : 55                          

I-V Characterization

Run on channel : 1 (SN 6514)
User : 
CE vs. WE compliance from -10 V to 10 V
Electrode connection : standard
Ewe ctrl range : min = -1.10 V, max = 0.20 V
Safety Limits :
	Do not start on E overload
Acquisition started on : 06/15/2016 17:46:18
Saved on :
	File : B125-G54-UN-G-D1GB-C3 BW 10mVs dark_C01.mpr
	Directory : E:\EC-Lab measurements\B125-G54-UN-G-D1GB\
	Host : 10.0.2.15
Device : VSP (SN 0295)
Address : USB
EC-Lab for windows v11.01 (software)
Internet server v11.00 (firmware)
Command interpretor v11.00 (firmware)
Electrode material : 
Initial state : 
Electrolyte : 
Comments : 
Electrode surface area : 0.001 cm²
Characteristic mass : 0.001 g
Equivalent Weight : 0.000 g/eq.
Density : 0.000 g/cm3
tR (h:m:s)          0:00:0.0000         
dER/dt (mV/h)       0.0                 
dER (mV)            0                   
dtR (s)             0.0000              
dE/dt               10.000              
dE/dt unit          mV/s                
Ei (V)              -1.000              
vs.                 Ref                 
EL (V)              0.100               
vs.                 Ref                 
record              <I>                 
dI                  0.000               
unit dI             µA                  
tI (s)              0.1000              
step percent        100                 
N                   100                 
E range min (V)     -1.100              
E range max (V)     0.200               
I Range             Auto                
I Range min         Unset               
I Range max         Unset               
I Range init        Unset               
Bandwidth           5                   

mode	ox/red	error	control changes	time/s	control/V	Ewe/V	<I>/mA	P/W
2	1	0	0	8.499999785271939E-002	-9.9968201E-001	-9.9971741E-001	-9.535623073577892E-002	9.5329284E-005
2	1	0	1	3.552999910243670E-001	-9.9698067E-001	-9.9701899E-001	-1.090026336551179E-001	1.0867770E-004
2	1	0	1	8.733999779360602E-001	-9.9179941E-001	-9.9183774E-001	-1.213880534584497E-001	1.2039725E-004
2	1	0	0	1.373999965289840E+000	-9.8679358E-001	-9.8686165E-001	-1.237571044013113E-001	1.2213114E-004
2	1	0	1	1.874699952641095E+000	-9.8178631E-001	-9.8183906E-001	-1.232377170786199E-001	1.2099960E-004
2	1	0	1	2.375399939992349E+000	-9.7677946E-001	-9.7683924E-001	-1.219081953442893E-001	1.1908471E-004
2	1	0	0	2.875999927346129E+000	-9.7177345E-001	-9.7183090E-001	-1.205689037881432E-001	1.1717259E-004
2	1	0	1	3.376599914699909E+000	-9.6676725E-001	-9.6683311E-001	-1.191014284682871E-001	1.1515120E-004
2	1	0	0	3.877199902053690E+000	-9.6176153E-001	-9.6181530E-001	-1.177095756909339E-001	1.1321487E-004
2	1	0	1	4.377799889407470E+000	-9.5675528E-001	-9.5677781E-001	-1.162783974234991E-001	1.1125259E-004
2	1	0	0	4.878399876761250E+000	-9.5174956E-001	-9.5181686E-001	-1.148292942246513E-001	1.0929646E-004
2	1	0	1	5.379099864112504E+000	-9.4674224E-001	-9.4679695E-001	-1.133903798043825E-001	1.0735766E-004
2	1	0	1	5.879799851463758E+000	-9.4173563E-001	-9.4179642E-001	-1.120449687047520E-001	1.0552355E-004
2	1	0	0	6.380399838817539E+000	-9.3672943E-001	-9.3678105E-001	-1.105455191687270E-001	1.0355694E-004
2	1	0	1	6.880999826171319E+000	-9.3172318E-001	-9.3178993E-001	-1.092433522009302E-001	1.0179185E-004
2	1	0	0	7.381599813525099E+000	-9.2671752E-001	-9.2678821E-001	-1.077916138043857E-001	9.9899997E-005
2	1	0	1	7.882199800878880E+000	-9.2171127E-001	-9.2176175E-001	-1.064089718256647E-001	9.8083721E-005
2	1	0	0	8.382799788232660E+000	-9.1670555E-001	-9.1674346E-001	-1.050274254324604E-001	9.6283205E-005
2	1	0	1	8.883499775583914E+000	-9.1169828E-001	-9.1176891E-001	-1.035899711716184E-001	9.4450115E-005
2	1	0	1	9.384199762935168E+000	-9.0669143E-001	-9.0675646E-001	-1.023765712386296E-001	9.2830618E-005
2	1	0	0	9.884799750288948E+000	-9.0168542E-001	-9.0174627E-001	-1.009801712341061E-001	9.1058493E-005
2	1	0	1	1.038539973764273E+001	-8.9667922E-001	-8.9672196E-001	-9.938037861130922E-002	8.9116569E-005
2	1	0	0	1.088599972499651E+001	-8.9167356E-001	-8.9173520E-001	-9.813550403990523E-002	8.7510882E-005
2	1	0	1	1.138659971235029E+001	-8.8666725E-001	-8.8673705E-001	-9.668273536163202E-002	8.5732165E-005
2	1	0	0	1.188719969970407E+001	-8.8166142E-001	-8.8171887E-001	-9.535656792062169E-002	8.4077685E-005
2	1	0	1	1.238789968705532E+001	-8.7665427E-001	-8.7671304E-001	-9.385165632170317E-002	8.2280974E-005
2	1	0	1	1.288859967440658E+001	-8.7164724E-001	-8.7171799E-001	-9.254229973503048E-002	8.0670790E-005
2	1	0	0	1.338919966176036E+001	-8.6664134E-001	-8.6673218E-001	-9.112084782421503E-002	7.8977369E-005
2	1	0	1	1.388979964911414E+001	-8.6163527E-001	-8.6171246E-001	-8.980276792046715E-002	7.7384160E-005
2	1	0	0	1.439039963646792E+001	-8.5662949E-001	-8.5670733E-001	-8.841617742637675E-002	7.5746786E-005
2	1	0	1	1.489099962382170E+001	-8.5162330E-001	-8.5170573E-001	-8.711250223844835E-002	7.4194220E-005
2	1	0	0	1.539159961117548E+001	-8.4661740E-001	-8.4670019E-001	-8.581828934384206E-002	7.2662362E-005
2	1	0	1	1.589229959852673E+001	-8.4161019E-001	-8.4167325E-001	-8.447710366243033E-002	7.1102120E-005
2	1	0	1	1.639299958587799E+001	-8.3660328E-001	-8.3667338E-001	-8.310373321368147E-002	6.9530681E-005
2	1	0	0	1.689359957323177E+001	-8.3159733E-001	-8.3166534E-001	-8.175749686883838E-002	6.7994879E-005
2	1	0	1	1.739419956058555E+001	-8.2659113E-001	-8.2667881E-001	-8.045361546016228E-002	6.6509296E-005
2	1	0	0	1.789479954793933E+001	-8.2158542E-001	-8.2165480E-001	-7.906552502634046E-002	6.4964566E-005
2	1	0	1	1.839539953529311E+001	-8.1657922E-001	-8.1665570E-001	-7.769263478952237E-002	6.3448133E-005
2	1	0	0	1.889599952264689E+001	-8.1157339E-001	-8.1164163E-001	-7.640519893144337E-002	6.2013642E-005
2	1	0	1	1.939659951000067E+001	-8.0656707E-001	-8.0664349E-001	-7.515477014875405E-002	6.0623104E-005
2	1	0	1	1.989739949734940E+001	-8.0155921E-001	-8.0161524E-001	-7.385277745918389E-002	5.9201513E-005
2	1	0	0	2.039799948470318E+001	-7.9655325E-001	-7.9662460E-001	-7.257887028482496E-002	5.7818113E-005
2	1	0	1	2.089859947205696E+001	-7.9154712E-001	-7.9160094E-001	-7.120047511615858E-002	5.6362362E-005
2	1	0	0	2.139919945941074E+001	-7.8654140E-001	-7.8658795E-001	-6.998046688237336E-002	5.5045792E-005
2	1	0	1	2.189979944676452E+001	-7.8153509E-001	-7.8159839E-001	-6.874114825741939E-002	5.3727970E-005
2	1	0	0	2.240039943411830E+001	-7.7652925E-001	-7.7658504E-001	-6.745527317535749E-002	5.2384756E-005
2	1	0	1	2.290099942147208E+001	-7.7152318E-001	-7.7158087E-001	-6.623311272237903E-002	5.1104202E-005
2	1	0	1	2.340179940882081E+001	-7.6651502E-001	-7.6657462E-001	-6.501330803204119E-002	4.9837552E-005
2	1	0	0	2.390239939617459E+001	-7.6150924E-001	-7.6156574E-001	-6.379156563403633E-002	4.8581471E-005
2	1	0	1	2.440299938352837E+001	-7.5650311E-001	-7.5654614E-001	-6.256241339775341E-002	4.7331352E-005
2	1	0	0	2.490359937088215E+001	-7.5149721E-001	-7.5154865E-001	-6.135415797731303E-002	4.6110636E-005
2	1	0	1	2.540419935823593E+001	-7.4649107E-001	-7.4653780E-001	-6.016516471825317E-002	4.4915570E-005
2	1	0	0	2.590479934558971E+001	-7.4148524E-001	-7.4152917E-001	-5.903535782999975E-002	4.3776439E-005
2	1	0	1	2.640539933294349E+001	-7.3647904E-001	-7.3651940E-001	-5.788895534514554E-002	4.2636337E-005
2	1	0	1	2.690619932029222E+001	-7.3147094E-001	-7.3152924E-001	-5.678885189516991E-002	4.1542706E-005
2	1	0	0	2.740679930764600E+001	-7.2646517E-001	-7.2649974E-001	-5.559625650835631E-002	4.0390667E-005
2	1	0	1	2.790739929499978E+001	-7.2145903E-001	-7.2149128E-001	-5.447761690671368E-002	3.9305127E-005
2	1	0	0	2.840799928235356E+001	-7.1645325E-001	-7.1650690E-001	-5.337519043616912E-002	3.8243692E-005
2	1	0	1	2.890859926970734E+001	-7.1144706E-001	-7.1150059E-001	-5.234082336531881E-002	3.7240527E-005
2	1	0	0	2.940919925706112E+001	-7.0644116E-001	-7.0649755E-001	-5.128643113963149E-002	3.6233738E-005
2	1	0	1	2.990979924441490E+001	-7.0143497E-001	-7.0148891E-001	-5.021926294290513E-002	3.5228255E-005
2	1	0	0	3.041049923176615E+001	-6.9642794E-001	-6.9647199E-001	-4.910746818017331E-002	3.4201978E-005
2	1	0	0	3.092869921867532E+001	-6.9124609E-001	-6.9129866E-001	-4.799272447281480E-002	3.3177308E-005
2	1	0	0	3.144679920558701E+001	-6.8606496E-001	-6.8610334E-001	-4.689015945304420E-002	3.2171494E-005
2	1	0	1	3.194739919294079E+001	-6.8105912E-001	-6.8109542E-001	-4.582821889442562E-002	3.1213389E-005
2	1	0	0	3.244799918029457E+001	-6.7605293E-001	-6.7609650E-001	-4.485560806380839E-002	3.0326719E-005
2	1	0	1	3.294869916764583E+001	-6.7104602E-001	-6.7109698E-001	-4.387371115389282E-002	2.9443516E-005
2	1	0	1	3.344939915499708E+001	-6.6603899E-001	-6.6608614E-001	-4.289556037090592E-002	2.8572138E-005
2	1	0	0	3.394999914235086E+001	-6.6103286E-001	-6.6107166E-001	-4.194473029142004E-002	2.7728473E-005
2	1	0	1	3.445059912970464E+001	-6.5602702E-001	-6.5606439E-001	-4.098619826335620E-002	2.6889586E-005
2	1	0	0	3.495119911705842E+001	-6.5102094E-001	-6.5107638E-001	-4.003007697410488E-002	2.6062637E-005
2	1	0	1	3.545179910441220E+001	-6.4601505E-001	-6.4606512E-001	-3.909344989493758E-002	2.5256913E-005
2	1	0	0	3.595239909176598E+001	-6.4100897E-001	-6.4107293E-001	-3.818337120337023E-002	2.4478326E-005
2	1	0	1	3.645299907911976E+001	-6.3600290E-001	-6.3608158E-001	-3.729907738620042E-002	2.3725255E-005
2	1	0	1	3.695379906646849E+001	-6.3099480E-001	-6.3107693E-001	-3.645518418299766E-002	2.3006025E-005
2	1	0	0	3.745439905382227E+001	-6.2598878E-001	-6.2608039E-001	-3.555482362704132E-002	2.2260178E-005
2	1	0	1	3.795499904117605E+001	-6.2098283E-001	-6.2106860E-001	-3.462685469519011E-002	2.1505652E-005
2	1	0	0	3.845559902852983E+001	-6.1597681E-001	-6.1605555E-001	-3.380967689950619E-002	2.0828638E-005
2	1	0	1	3.895619901588361E+001	-6.1097097E-001	-6.1106032E-001	-3.297295811596743E-002	2.0148467E-005
2	1	0	0	3.945679900323739E+001	-6.0596484E-001	-6.0604471E-001	-3.213473440298412E-002	1.9475086E-005
2	1	0	1	3.995739899059117E+001	-6.0095888E-001	-6.0103089E-001	-3.136544005036679E-002	1.8851599E-005
2	1	0	1	4.045819897793990E+001	-5.9595078E-001	-5.9603959E-001	-3.056127204462749E-002	1.8215727E-005
2	1	0	0	4.095879896529368E+001	-5.9094471E-001	-5.9101868E-001	-2.981169380718571E-002	1.7619268E-005
2	1	0	1	4.145939895264746E+001	-5.8593875E-001	-5.8601117E-001	-2.906855150006460E-002	1.7034496E-005
2	1	0	0	4.195999894000124E+001	-5.8093280E-001	-5.8099967E-001	-2.830348781666986E-002	1.6444317E-005
2	1	0	1	4.246059892735502E+001	-5.7592684E-001	-5.7600844E-001	-2.757645099095746E-002	1.5884269E-005
2	1	0	0	4.296119891470880E+001	-5.7092071E-001	-5.7101893E-001	-2.685455038783211E-002	1.5334457E-005
2	1	0	1	4.346179890206258E+001	-5.6591475E-001	-5.6599307E-001	-2.611691684162220E-002	1.4781994E-005
2	1	0	1	4.396259888941131E+001	-5.6090659E-001	-5.6099260E-001	-2.539085715138939E-002	1.4244083E-005
2	1	0	0	4.446319887676509E+001	-5.5590051E-001	-5.5600381E-001	-2.472229296005860E-002	1.3745689E-005
2	1	0	1	4.496379886411887E+001	-5.5089468E-001	-5.5097985E-001	-2.409598891084419E-002	1.3276404E-005
2	1	0	0	4.546439885147265E+001	-5.4588860E-001	-5.4595554E-001	-2.342636623999667E-002	1.2789755E-005
2	1	0	1	4.596499883882643E+001	-5.4088271E-001	-5.4095888E-001	-2.277760954043673E-002	1.2321751E-005
2	1	0	0	4.646559882618021E+001	-5.3587663E-001	-5.3595948E-001	-2.213460244385801E-002	1.1863250E-005
2	1	0	1	4.696619881353399E+001	-5.3087056E-001	-5.3093904E-001	-2.151534723294037E-002	1.1423338E-005
2	1	0	0	4.746689880088525E+001	-5.2586353E-001	-5.2594489E-001	-2.096024329988662E-002	1.1023933E-005
2	1	0	0	4.796759878823650E+001	-5.2085650E-001	-5.2092141E-001	-2.035909412193432E-002	1.0605488E-005
2	1	0	1	4.846819877559028E+001	-5.1585054E-001	-5.1594603E-001	-1.981613660318238E-002	1.0224057E-005
2	1	0	0	4.896879876294406E+001	-5.1084453E-001	-5.1092041E-001	-1.924422173209933E-002	9.8322653E-006
2	1	0	1	4.946939875029784E+001	-5.0583857E-001	-5.0590849E-001	-1.868069924487864E-002	9.4507241E-006
2	1	0	0	4.996999873765162E+001	-5.0083256E-001	-5.0090355E-001	-1.814677076198307E-002	9.0897820E-006
2	1	0	1	5.047059872500540E+001	-4.9582645E-001	-4.9589697E-001	-1.761427637776175E-002	8.7348662E-006
2	1	0	0	5.097129871235666E+001	-4.9081945E-001	-4.9088776E-001	-1.708693807471281E-002	8.3877685E-006
2	1	0	0	5.147199869970791E+001	-4.8581246E-001	-4.8588455E-001	-1.655003702660796E-002	8.0414075E-006
2	1	0	1	5.197259868706169E+001	-4.8080647E-001	-4.8086345E-001	-1.604458108399404E-002	7.7152527E-006
2	1	0	0	5.247319867441547E+001	-4.7580042E-001	-4.7585294E-001	-1.561478944369221E-002	7.4303434E-006
2	1	0	1	5.297379866176925E+001	-4.7079453E-001	-4.7084486E-001	-1.512822123048561E-002	7.1230452E-006
2	1	0	0	5.347439864912303E+001	-4.6578851E-001	-4.6583962E-001	-1.466517054392215E-002	6.8316176E-006
2	1	0	1	5.397499863647681E+001	-4.6078250E-001	-4.6083549E-001	-1.426423101524152E-002	6.5734639E-006
2	1	0	0	5.447569862382807E+001	-4.5577541E-001	-4.5582065E-001	-1.378374570903854E-002	6.2829158E-006
2	1	0	0	5.497639861117932E+001	-4.5076844E-001	-4.5081344E-001	-1.336289192859174E-002	6.0241714E-006
2	1	0	1	5.547699859853310E+001	-4.4576243E-001	-4.4580421E-001	-1.293918071679573E-002	5.7683410E-006
2	1	0	0	5.597759858588688E+001	-4.4075644E-001	-4.4080430E-001	-1.252305685342290E-002	5.5202172E-006
2	1	0	1	5.647819857324066E+001	-4.3575048E-001	-4.3580243E-001	-1.213600878804258E-002	5.2889022E-006
2	1	0	0	5.697879856059444E+001	-4.3074447E-001	-4.3078053E-001	-1.176770941048026E-002	5.0693002E-006
2	1	0	1	5.747939854794822E+001	-4.2573842E-001	-4.2579019E-001	-1.138860881784506E-002	4.8491579E-006
2	1	0	0	5.798009853529948E+001	-4.2073143E-001	-4.2076960E-001	-1.098092342825649E-002	4.6204386E-006
2	1	0	0	5.848079852265073E+001	-4.1572440E-001	-4.1577482E-001	-1.061453742540806E-002	4.4132576E-006
2	1	0	1	5.898139851000451E+001	-4.1071838E-001	-4.1075674E-001	-1.029267257905598E-002	4.2277848E-006
2	1	0	0	5.948199849735829E+001	-4.0571243E-001	-4.0577063E-001	-9.956079376545968E-003	4.0398845E-006
2	1	0	1	5.998259848471207E+001	-4.0070641E-001	-4.0077037E-001	-9.637311220065697E-003	3.8623489E-006
2	1	0	0	6.048319847206585E+001	-3.9570040E-001	-3.9575362E-001	-9.313518024362116E-003	3.6858585E-006
2	1	0	1	6.098379845941963E+001	-3.9069435E-001	-3.9075160E-001	-8.999613129834804E-003	3.5166133E-006
2	1	0	0	6.148449844677089E+001	-3.8568735E-001	-3.8573840E-001	-8.686922261498128E-003	3.3508795E-006
2	1	0	0	6.198519843412214E+001	-3.8068029E-001	-3.8074386E-001	-8.403274317040285E-003	3.1994950E-006
2	1	0	1	6.248579842147592E+001	-3.7567434E-001	-3.7571234E-001	-8.134105370029343E-003	3.0560836E-006
2	1	0	0	6.298639840882970E+001	-3.7066835E-001	-3.7072232E-001	-7.855187067497889E-003	2.9120931E-006
2	1	0	1	6.348699839618348E+001	-3.6566240E-001	-3.6570686E-001	-7.591240711054534E-003	2.7761689E-006
2	1	0	0	6.398759838353726E+001	-3.6065635E-001	-3.6071002E-001	-7.312354559226242E-003	2.6376397E-006
2	1	0	1	6.448819837089104E+001	-3.5565028E-001	-3.5570106E-001	-7.058772489521817E-003	2.5108129E-006
2	1	0	0	6.498889835824230E+001	-3.5064325E-001	-3.5069379E-001	-6.809327370985052E-003	2.3879888E-006
2	1	0	0	6.548959834559355E+001	-3.4563628E-001	-3.4568602E-001	-6.565101121677311E-003	2.2694637E-006
2	1	0	1	6.599019833294733E+001	-3.4063026E-001	-3.4067017E-001	-6.317626448865660E-003	2.1522269E-006
2	1	0	0	6.649079832030111E+001	-3.3562428E-001	-3.3566517E-001	-6.085903666503453E-003	2.0428258E-006
2	1	0	1	6.699139830765489E+001	-3.3061832E-001	-3.3065009E-001	-5.848465712528172E-003	1.9337958E-006
2	1	0	0	6.749199829500867E+001	-3.2561228E-001	-3.2566386E-001	-5.622929956588946E-003	1.8311850E-006
2	1	0	1	6.799259828236245E+001	-3.2060620E-001	-3.2065654E-001	-5.416070673844940E-003	1.7366984E-006
2	1	0	0	6.849329826971370E+001	-3.1559917E-001	-3.1567907E-001	-5.214716238977339E-003	1.6461768E-006
2	1	0	0	6.899399825706496E+001	-3.1059220E-001	-3.1065473E-001	-5.019380847400973E-003	1.5592944E-006
2	1	0	1	6.951209824397665E+001	-3.0541122E-001	-3.0546564E-001	-4.823587847242765E-003	1.4734403E-006
2	1	0	1	7.003019823088835E+001	-3.0023015E-001	-3.0029151E-001	-4.626480765549348E-003	1.3892928E-006
2	1	0	0	7.053079821824213E+001	-2.9522419E-001	-2.9528445E-001	-4.449894054963113E-003	1.3139845E-006
2	1	0	1	7.103139820559591E+001	-2.9021817E-001	-2.9026124E-001	-4.268758138578035E-003	1.2390550E-006
2	1	0	0	7.153209819294716E+001	-2.8521115E-001	-2.8526667E-001	-4.099146695726030E-003	1.1693500E-006
2	1	0	0	7.203279818029841E+001	-2.8020415E-001	-2.8025103E-001	-3.937532222766320E-003	1.1034974E-006
2	1	0	1	7.253339816765219E+001	-2.7519810E-001	-2.7524513E-001	-3.776701351618159E-003	1.0395187E-006
2	1	0	0	7.303399815500597E+001	-2.7019212E-001	-2.7024031E-001	-3.613901346732966E-003	9.7662178E-007
2	1	0	1	7.353459814235976E+001	-2.6518607E-001	-2.6523677E-001	-3.463580849235211E-003	9.1866900E-007
2	1	0	0	7.403519812971354E+001	-2.6018009E-001	-2.6024252E-001	-3.320738138764927E-003	8.6419726E-007
2	1	0	1	7.453579811706732E+001	-2.5517404E-001	-2.5522336E-001	-3.183617527183252E-003	8.1253359E-007
2	1	0	0	7.503649810441857E+001	-2.5016707E-001	-2.5020745E-001	-3.039290763647548E-003	7.6045319E-007
2	1	0	0	7.553719809176982E+001	-2.4516003E-001	-2.4521938E-001	-2.899929419335291E-003	7.1111890E-007
2	1	0	1	7.603779807912360E+001	-2.4015407E-001	-2.4023141E-001	-2.782949259421408E-003	6.6855182E-007
2	1	0	0	7.653839806647738E+001	-2.3514803E-001	-2.3520420E-001	-2.659857971565542E-003	6.2560980E-007
2	1	0	1	7.703899805383116E+001	-2.3014201E-001	-2.3022567E-001	-2.524964198923271E-003	5.8131155E-007
2	1	0	0	7.753959804118495E+001	-2.2513600E-001	-2.2521852E-001	-2.417804745006275E-003	5.4453443E-007
2	1	0	1	7.804019802853873E+001	-2.2013000E-001	-2.2020045E-001	-2.296187410734209E-003	5.0562147E-007
2	1	0	0	7.854089801588998E+001	-2.1512298E-001	-2.1520457E-001	-2.189185623240247E-003	4.7112275E-007
2	1	0	0	7.904159800324123E+001	-2.1011601E-001	-2.1018882E-001	-2.087174972596129E-003	4.3870085E-007
2	1	0	1	7.954219799059501E+001	-2.0511001E-001	-2.0518656E-001	-1.988325786452499E-003	4.0797772E-007
2	1	0	0	8.004279797794879E+001	-2.0010400E-001	-2.0017970E-001	-1.890908984805696E-003	3.7852158E-007
2	1	0	1	8.054339796530257E+001	-1.9509795E-001	-1.9515748E-001	-1.798035126999371E-003	3.5090002E-007
2	1	0	0	8.104399795265635E+001	-1.9009194E-001	-1.9017887E-001	-1.706722060960637E-003	3.2458249E-007
2	1	0	1	8.154459794001014E+001	-1.8508594E-001	-1.8514778E-001	-1.609865913082030E-003	2.9806310E-007
2	1	0	0	8.204529792736139E+001	-1.8007891E-001	-1.8013945E-001	-1.516049893087193E-003	2.7310040E-007
2	1	0	0	8.254599791471264E+001	-1.7507194E-001	-1.7513342E-001	-1.432597098263030E-003	2.5089562E-007
2	1	0	1	8.304659790206642E+001	-1.7006594E-001	-1.7012283E-001	-1.347933505599880E-003	2.2931427E-007
2	1	0	0	8.354719788942020E+001	-1.6505992E-001	-1.6512407E-001	-1.268291935044670E-003	2.0942554E-007
2	1	0	1	8.404779787677398E+001	-1.6005388E-001	-1.6011322E-001	-1.197734186076414E-003	1.9177307E-007
2	1	0	0	8.454839786412776E+001	-1.5504786E-001	-1.5510689E-001	-1.125614470315704E-003	1.7459055E-007
2	1	0	1	8.504899785148154E+001	-1.5004188E-001	-1.5009211E-001	-1.057030475862121E-003	1.5865193E-007
2	1	0	0	8.554969783883280E+001	-1.4503485E-001	-1.4509310E-001	-9.889174246707766E-004	1.4348510E-007
2	1	0	0	8.605039782618405E+001	-1.4002785E-001	-1.4007264E-001	-9.217967084928311E-004	1.2911850E-007
2	1	0	1	8.655099781353783E+001	-1.3502185E-001	-1.3505436E-001	-8.605266372895398E-004	1.1621788E-007
2	1	0	0	8.705159780089161E+001	-1.3001585E-001	-1.3004474E-001	-8.054063869438466E-004	1.0473887E-007
2	1	0	1	8.755219778824539E+001	-1.2500978E-001	-1.2505163E-001	-7.547401066854507E-004	9.4381484E-008
2	1	0	0	8.805279777559917E+001	-1.2000379E-001	-1.2003416E-001	-7.008841924967969E-004	8.4130043E-008
2	1	0	1	8.855339776295295E+001	-1.1499775E-001	-1.1502659E-001	-6.486361224853059E-004	7.4610398E-008
2	1	0	0	8.905409775030421E+001	-1.0999075E-001	-1.1004367E-001	-6.025320128298138E-004	6.6304835E-008
2	1	0	0	8.955479773765546E+001	-1.0498379E-001	-1.0502534E-001	-5.557383658851642E-004	5.8366613E-008
2	1	0	1	9.005539772500924E+001	-9.9977784E-002	-1.0000769E-001	-5.118607263467426E-004	5.1190010E-008
2	1	0	0	9.055599771236302E+001	-9.4971754E-002	-9.5002018E-002	-4.721587512187338E-004	4.4856034E-008
2	1	0	1	9.105659769971680E+001	-8.9965746E-002	-8.9999519E-002	-4.332823073531882E-004	3.8995200E-008
2	1	0	0	9.155719768707058E+001	-8.4959708E-002	-8.5003883E-002	-3.955649308507309E-004	3.3624556E-008
2	1	0	1	9.205779767442436E+001	-7.9953715E-002	-7.9992056E-002	-3.567787868596893E-004	2.8539469E-008
2	1	0	0	9.255849766177562E+001	-7.4946687E-002	-7.4969880E-002	-3.252145764291521E-004	2.4381297E-008
2	1	0	0	9.305919764912687E+001	-6.9939718E-002	-6.9989532E-002	-2.901590778981740E-004	2.0308098E-008
2	1	0	1	9.355979763648065E+001	-6.4933687E-002	-6.4981267E-002	-2.590862419355770E-004	1.6835752E-008
2	1	0	0	9.406039762383443E+001	-5.9927698E-002	-5.9960421E-002	-2.273603544317607E-004	1.3632623E-008
2	1	0	1	9.456099761118821E+001	-5.4921657E-002	-5.4963209E-002	-1.986464104431766E-004	1.0918244E-008
2	1	0	0	9.506159759854199E+001	-4.9915653E-002	-4.9944188E-002	-1.711166256437792E-004	8.5462810E-009
2	1	0	1	9.556219758589577E+001	-4.4909623E-002	-4.4944707E-002	-1.443607005042551E-004	6.4882495E-009
2	1	0	0	9.606279757324955E+001	-3.9903607E-002	-3.9937664E-002	-1.186066208988004E-004	4.7368713E-009
2	1	0	0	9.656359756059828E+001	-3.4895699E-002	-3.4941424E-002	-9.454312830727528E-005	3.3034715E-009
2	1	0	1	9.706419754795206E+001	-2.9889643E-002	-2.9936366E-002	-7.050861576616608E-005	2.1107718E-009
2	1	0	0	9.756479753530584E+001	-2.4883637E-002	-2.4925075E-002	-4.742931090353261E-005	1.1821791E-009
2	1	0	1	9.806539752265962E+001	-1.9877607E-002	-1.9911435E-002	-2.564126680107588E-005	5.1055443E-010
2	1	0	0	9.856599751001340E+001	-1.4871595E-002	-1.4901610E-002	-4.128986391498881E-006	6.1528546E-011
2	1	0	1	9.906659749736718E+001	-9.8655699E-003	-9.9295340E-003	1.693655353220968E-005	1.6817209E-010
2	1	0	0	9.956719748472096E+001	-4.8595406E-003	-4.9224840E-003	3.777109909417690E-005	1.8592763E-010
2	1	0	0	1.000679974720697E+002	1.4840906E-004	1.0578723E-004	5.818346785531011E-005	6.1550678E-012
2	1	0	1	1.005685974594235E+002	5.1543997E-003	5.1085446E-003	7.815186166163857E-005	3.9924228E-010
2	1	0	0	1.010691974467773E+002	1.0160407E-002	1.0114365E-002	9.786185851826590E-005	9.8981057E-010
2	1	0	1	1.015697974341310E+002	1.5166396E-002	1.5120565E-002	1.171778109582125E-004	1.7717947E-009
2	1	0	0	1.020703974214848E+002	2.0172402E-002	2.0135490E-002	1.361112051183357E-004	2.7406659E-009
2	1	0	1	1.025709974088386E+002	2.5178391E-002	2.5146173E-002	1.550711010407499E-004	3.8994448E-009
2	1	0	0	1.030715973961924E+002	3.0184403E-002	3.0141696E-002	1.744726862416444E-004	5.2589026E-009
2	1	0	1	1.035722973835436E+002	3.5191320E-002	3.5149783E-002	1.936856938913201E-004	6.8080102E-009
2	1	0	1	1.040729973708949E+002	4.0198330E-002	4.0147200E-002	2.117597490862997E-004	8.5015612E-009
2	1	0	0	1.045735973582487E+002	4.5204289E-002	4.5167204E-002	2.322053283222453E-004	1.0488066E-008
2	1	0	1	1.050741973456024E+002	5.0210327E-002	5.0180633E-002	2.511224623958162E-004	1.2601484E-008
2	1	0	0	1.055747973329562E+002	5.5216316E-002	5.5170406E-002	2.699882390676863E-004	1.4895361E-008
2	1	0	1	1.060753973203100E+002	6.0222331E-002	6.0180061E-002	2.891811360757118E-004	1.7402938E-008
2	1	0	0	1.065759973076638E+002	6.5228343E-002	6.5193065E-002	3.103982180996936E-004	2.0235811E-008
2	1	0	1	1.070766972950150E+002	7.0235260E-002	7.0200212E-002	3.315189211226506E-004	2.3272699E-008
2	1	0	1	1.075773972823663E+002	7.5242266E-002	7.5204119E-002	3.513483871785076E-004	2.6422846E-008
2	1	0	0	1.080779972697201E+002	8.0248237E-002	8.0212034E-002	3.739649948140853E-004	2.9996492E-008
2	1	0	1	1.085785972570739E+002	8.5254245E-002	8.5236348E-002	3.955412410671065E-004	3.3714493E-008
2	1	0	0	1.090791972444276E+002	9.0260245E-002	9.0216376E-002	4.160790945654386E-004	3.7537149E-008
2	1	0	1	1.095797972317814E+002	9.5266216E-002	9.5246702E-002	4.425719087536963E-004	4.2153516E-008
2	1	0	0	1.099402972226744E+002	9.8871343E-002	9.8845705E-002	4.601826301373220E-004	4.5487077E-008
2	1	0	1	1.100507972198830E+002	9.9997856E-002	9.9932745E-002	4.675323102024515E-004	4.6721787E-008