EC-Lab ASCII FILE
Nb header lines : 55                          

I-V Characterization

Run on channel : 1 (SN 6514)
User : 
CE vs. WE compliance from -10 V to 10 V
Electrode connection : standard
Ewe ctrl range : min = -1.10 V, max = 0.20 V
Safety Limits :
	Do not start on E overload
Acquisition started on : 06/15/2016 19:16:41
Saved on :
	File : B125-G54-UN-G-D1GB-C15 BW 100mVs_02_IVC_C01.mpr
	Directory : E:\EC-Lab measurements\B125-G54-UN-G-D1GB\
	Host : 10.0.2.15
Device : VSP (SN 0295)
Address : USB
EC-Lab for windows v11.01 (software)
Internet server v11.00 (firmware)
Command interpretor v11.00 (firmware)
Electrode material : 
Initial state : 
Electrolyte : 
Comments : 
Electrode surface area : 0.001 cm²
Characteristic mass : 0.001 g
Equivalent Weight : 0.000 g/eq.
Density : 0.000 g/cm3
tR (h:m:s)          0:00:0.0000         
dER/dt (mV/h)       0.0                 
dER (mV)            0                   
dtR (s)             0.0000              
dE/dt               100.000             
dE/dt unit          mV/s                
Ei (V)              -1.000              
vs.                 Ref                 
EL (V)              0.100               
vs.                 Ref                 
record              <I>                 
dI                  0.000               
unit dI             µA                  
tI (s)              0.1000              
step percent        100                 
N                   100                 
E range min (V)     -1.100              
E range max (V)     0.200               
I Range             Auto                
I Range min         Unset               
I Range max         Unset               
I Range init        Unset               
Bandwidth           5                   

mode	ox/red	error	control changes	time/s	control/V	Ewe/V	<I>/mA	P/W
2	1	0	1	1.105119972082321E+001	-1.0000715E+000	-1.0869343E+000	-6.696745008230209E-002	7.2789218E-005
2	1	0	1	1.107639972018660E+001	-9.9754560E-001	-9.9763709E-001	-1.327027011959352E+000	1.3238913E-003
2	1	0	1	1.112639971892349E+001	-9.9254352E-001	-9.9264717E-001	-1.337948638465722E+000	1.3281109E-003
2	1	0	0	1.117649971765786E+001	-9.8753279E-001	-9.8765427E-001	-1.340587059170367E+000	1.3240365E-003
2	1	0	0	1.122659971639223E+001	-9.8252517E-001	-9.8263812E-001	-1.341399253655183E+000	1.3181100E-003
2	1	0	0	1.127659971512912E+001	-9.7752255E-001	-9.7764027E-001	-1.342199361365484E+000	1.3121881E-003
2	1	0	1	1.132669971386349E+001	-9.7251463E-001	-9.7262263E-001	-1.341290553596206E+000	1.3045695E-003
2	1	0	1	1.137679971259786E+001	-9.6750438E-001	-9.6760684E-001	-1.338172916699711E+000	1.2948252E-003
2	1	0	1	1.142679971133475E+001	-9.6250188E-001	-9.6259898E-001	-1.333706161158105E+000	1.2838242E-003
2	1	0	0	1.147689971006912E+001	-9.5749539E-001	-9.5757979E-001	-1.331811739281981E+000	1.2753160E-003
2	1	0	0	1.152699970880349E+001	-9.5248336E-001	-9.5258760E-001	-1.328459435812867E+000	1.2654740E-003
2	1	0	0	1.157699970754038E+001	-9.4748324E-001	-9.4759685E-001	-1.323859145332818E+000	1.2544848E-003
2	1	0	0	1.162699970627727E+001	-9.4248497E-001	-9.4259876E-001	-1.318297593028170E+000	1.2426256E-003
2	1	0	1	1.167719970500912E+001	-9.3746281E-001	-9.3756890E-001	-1.310798140222015E+000	1.2289636E-003
2	1	0	1	1.172719970374601E+001	-9.3246454E-001	-9.3257397E-001	-1.300977076878834E+000	1.2132573E-003
2	1	0	1	1.177719970248290E+001	-9.2746383E-001	-9.2757398E-001	-1.290357698754631E+000	1.1969022E-003
2	1	0	0	1.182729970121727E+001	-9.2245185E-001	-9.2255986E-001	-1.275598730728532E+000	1.1768162E-003
2	1	0	0	1.187739969995164E+001	-9.1744572E-001	-9.1753334E-001	-1.258665647221864E+000	1.1548677E-003
2	1	0	0	1.192739969868853E+001	-9.1244298E-001	-9.1256648E-001	-1.238677951779826E+000	1.1303760E-003
2	1	0	1	1.197749969742290E+001	-9.0743369E-001	-9.0752685E-001	-1.213942307624745E+000	1.1016852E-003
2	1	0	1	1.202759969615727E+001	-9.0242475E-001	-9.0252060E-001	-1.188099722397009E+000	1.0722844E-003
2	1	0	1	1.207759969489416E+001	-8.9742237E-001	-8.9753836E-001	-1.159258340099187E+000	1.0404788E-003
2	1	0	0	1.212769969362853E+001	-8.9241433E-001	-8.9251709E-001	-1.127902663535931E+000	1.0066724E-003
2	1	0	0	1.217779969236290E+001	-8.8740402E-001	-8.8750577E-001	-1.092574868084586E+000	9.6966652E-004
2	1	0	0	1.222779969109979E+001	-8.8240182E-001	-8.8249445E-001	-1.056202638383573E+000	9.3209295E-004
2	1	0	0	1.227779968983668E+001	-8.7740558E-001	-8.7750715E-001	-1.017591084692217E+000	8.9294347E-004
2	1	0	1	1.232799968856853E+001	-8.7238306E-001	-8.7251908E-001	-9.767976683706330E-001	8.5227459E-004
2	1	0	1	1.237799968730542E+001	-8.6738336E-001	-8.6749738E-001	-9.350562930183344E-001	8.1115891E-004
2	1	0	1	1.242799968604231E+001	-8.6238432E-001	-8.6249340E-001	-8.909952781402000E-001	7.6847756E-004
2	1	0	0	1.247819968477415E+001	-8.5736227E-001	-8.5747439E-001	-8.458690163000160E-001	7.2531099E-004
2	1	0	0	1.252819968351105E+001	-8.5236460E-001	-8.5247767E-001	-8.014168304867315E-001	6.8318995E-004
2	1	0	0	1.257819968224794E+001	-8.4736377E-001	-8.4748489E-001	-7.563116853425669E-001	6.4096274E-004
2	1	0	1	1.262829968098231E+001	-8.4235245E-001	-8.4244293E-001	-7.112746396392229E-001	5.9920829E-004
2	1	0	1	1.267839967971668E+001	-8.3734506E-001	-8.3745462E-001	-6.664778152264681E-001	5.5814494E-004
2	1	0	1	1.272839967845357E+001	-8.3234257E-001	-8.3243734E-001	-6.234411001638744E-001	5.1897566E-004
2	1	0	0	1.277849967718794E+001	-8.2733345E-001	-8.2745636E-001	-5.801017766241090E-001	4.8000889E-004
2	1	0	0	1.282859967592231E+001	-8.2232457E-001	-8.2242376E-001	-5.370782064514787E-001	4.4170587E-004
2	1	0	0	1.287859967465920E+001	-8.1732178E-001	-8.1743115E-001	-4.956691802067135E-001	4.0517544E-004
2	1	0	1	1.294379967301211E+001	-8.1080335E-001	-8.1089926E-001	-4.423875330763609E-001	3.5873172E-004
2	1	0	1	1.300879967137007E+001	-8.0430478E-001	-8.0435205E-001	-3.884878809127521E-001	3.1248102E-004
2	1	0	1	1.305879967010696E+001	-7.9930335E-001	-7.9934722E-001	-3.492543553707801E-001	2.7917550E-004
2	1	0	0	1.310889966884133E+001	-7.9429215E-001	-7.9432708E-001	-3.107648224250235E-001	2.4684891E-004
2	1	0	0	1.315899966757570E+001	-7.8928506E-001	-7.8933561E-001	-2.730145522979086E-001	2.1550011E-004
2	1	0	0	1.320899966631259E+001	-7.8428245E-001	-7.8432822E-001	-2.363076272555249E-001	1.8534274E-004
2	1	0	1	1.325909966504696E+001	-7.7927381E-001	-7.7932143E-001	-2.002956201388302E-001	1.5609467E-004
2	1	0	1	1.330919966378133E+001	-7.7426416E-001	-7.7430040E-001	-1.651380693540179E-001	1.2786647E-004
2	1	0	1	1.335919966251822E+001	-7.6926172E-001	-7.6930636E-001	-1.310230638367579E-001	1.0079687E-004
2	1	0	0	1.340929966125259E+001	-7.6425469E-001	-7.6429647E-001	-9.765593525817518E-002	7.4638090E-005
2	1	0	0	1.345939965998696E+001	-7.5924343E-001	-7.5927806E-001	-6.516337266050976E-002	4.9477119E-005
2	1	0	0	1.350939965872385E+001	-7.5424206E-001	-7.5426900E-001	-3.346552422583371E-002	2.5242007E-005
2	1	0	0	1.355939965746074E+001	-7.4924511E-001	-7.4928087E-001	-2.851681916576476E-003	2.1367107E-006
2	1	0	1	1.360959965619259E+001	-7.4422246E-001	-7.4423403E-001	2.727442529942392E-002	2.0298556E-005
2	1	0	1	1.365959965492948E+001	-7.3922360E-001	-7.3923481E-001	5.648041131871231E-002	4.1752286E-005
2	1	0	1	1.370959965366637E+001	-7.3422378E-001	-7.3424286E-001	8.484870723073845E-002	6.2299558E-005
2	1	0	0	1.375979965239821E+001	-7.2920173E-001	-7.2923809E-001	1.125939723981836E-001	8.2107814E-005
2	1	0	0	1.380979965113511E+001	-7.2420466E-001	-7.2422326E-001	1.396675101380945E-001	1.0115046E-004
2	1	0	0	1.385979964987200E+001	-7.1920311E-001	-7.1920818E-001	1.659713127905063E-001	1.1936793E-004
2	1	0	1	1.390989964860637E+001	-7.1419257E-001	-7.1422404E-001	1.917384576849627E-001	1.3694422E-004
2	1	0	1	1.395999964734074E+001	-7.0918453E-001	-7.0922852E-001	2.166921052759775E-001	1.5368422E-004
2	1	0	1	1.400999964607763E+001	-7.0418221E-001	-7.0420790E-001	2.410882323388446E-001	1.6977623E-004
2	1	0	0	1.406009964481200E+001	-6.9917357E-001	-6.9920129E-001	2.644967819445805E-001	1.8493649E-004
2	1	0	0	1.411019964354637E+001	-6.9416344E-001	-6.9419807E-001	2.876633634854660E-001	1.9969535E-004
2	1	0	0	1.416019964228326E+001	-6.8916112E-001	-6.8919080E-001	3.108792527739510E-001	2.1425512E-004
2	1	0	1	1.421029964101763E+001	-6.8415511E-001	-6.8416411E-001	3.332159078377455E-001	2.2797436E-004
2	1	0	1	1.426039963975200E+001	-6.7914283E-001	-6.7916399E-001	3.545508183947650E-001	2.4079815E-004
2	1	0	1	1.431039963848889E+001	-6.7414266E-001	-6.7417884E-001	3.752616508117566E-001	2.5299346E-004
2	1	0	1	1.436039963722578E+001	-6.6914415E-001	-6.6917622E-001	3.957218652136181E-001	2.6480766E-004
2	1	0	0	1.441059963595762E+001	-6.6412181E-001	-6.6415656E-001	4.158070721107769E-001	2.7616098E-004
2	1	0	0	1.446059963469452E+001	-6.5912348E-001	-6.5915954E-001	4.345935517646748E-001	2.8646650E-004
2	1	0	0	1.451059963343141E+001	-6.5412354E-001	-6.5417087E-001	4.533331412507555E-001	2.9655732E-004
2	1	0	1	1.456069963216578E+001	-6.4911133E-001	-6.4915115E-001	4.720000490529355E-001	3.0639936E-004
2	1	0	1	1.461079963090015E+001	-6.4410502E-001	-6.4414358E-001	4.907872214129796E-001	3.1613745E-004
2	1	0	1	1.466079962963704E+001	-6.3910270E-001	-6.3914895E-001	5.084990260694533E-001	3.2500661E-004
2	1	0	0	1.471089962837141E+001	-6.3409251E-001	-6.3415509E-001	5.257927245723244E-001	3.3343415E-004
2	1	0	0	1.476099962710578E+001	-6.2908375E-001	-6.2914842E-001	5.426006192660431E-001	3.4137632E-004
2	1	0	0	1.481099962584267E+001	-6.2408143E-001	-6.2413108E-001	5.589361273760689E-001	3.4884940E-004
2	1	0	1	1.486109962457704E+001	-6.1907399E-001	-6.1914176E-001	5.750744520606847E-001	3.5605259E-004
2	1	0	1	1.491119962331140E+001	-6.1406314E-001	-6.1411732E-001	5.901157729246664E-001	3.6240031E-004
2	1	0	1	1.496119962204830E+001	-6.0906154E-001	-6.0913360E-001	6.052436986705061E-001	3.6867429E-004
2	1	0	1	1.501119962078519E+001	-6.0406476E-001	-6.0412139E-001	6.208522901635650E-001	3.7507014E-004
2	1	0	0	1.506139961951703E+001	-5.9904218E-001	-5.9910917E-001	6.351924798828854E-001	3.8054964E-004
2	1	0	0	1.511139961825393E+001	-5.9404230E-001	-5.9411699E-001	6.487035483988208E-001	3.8540579E-004
2	1	0	0	1.516139961699082E+001	-5.8904409E-001	-5.8909452E-001	6.618888786000756E-001	3.8991511E-004
2	1	0	1	1.521159961572266E+001	-5.8402151E-001	-5.8407539E-001	6.753536309459900E-001	3.9445743E-004
2	1	0	1	1.526159961445956E+001	-5.7902402E-001	-5.7907963E-001	6.891683539997207E-001	3.9908336E-004
2	1	0	1	1.531159961319645E+001	-5.7402313E-001	-5.7408577E-001	7.012976103766526E-001	4.0260499E-004
2	1	0	0	1.536169961193082E+001	-5.6901139E-001	-5.6906784E-001	7.126690326051293E-001	4.0555702E-004
2	1	0	0	1.541179961066518E+001	-5.6400424E-001	-5.6406188E-001	7.246876779936962E-001	4.0876868E-004
2	1	0	0	1.546179960940208E+001	-5.5900210E-001	-5.5906123E-001	7.357931011563137E-001	4.1135339E-004
2	1	0	1	1.551189960813645E+001	-5.5399269E-001	-5.5406851E-001	7.468194782048450E-001	4.1378915E-004
2	1	0	1	1.556199960687081E+001	-5.4898393E-001	-5.4905033E-001	7.576282644583185E-001	4.1597604E-004
2	1	0	1	1.561199960560771E+001	-5.4398167E-001	-5.4403901E-001	7.682888149928715E-001	4.1797908E-004
2	1	0	0	1.566209960434207E+001	-5.3897405E-001	-5.3903127E-001	7.781272059936297E-001	4.1943489E-004
2	1	0	0	1.571219960307644E+001	-5.3396267E-001	-5.3401464E-001	7.876225006068918E-001	4.2060195E-004
2	1	0	0	1.576219960181334E+001	-5.2896130E-001	-5.2901131E-001	7.976538970883880E-001	4.2196794E-004
2	1	0	0	1.581219960055023E+001	-5.2396452E-001	-5.2402025E-001	8.060319867837649E-001	4.2237708E-004
2	1	0	1	1.586239959928207E+001	-5.1894206E-001	-5.1899737E-001	8.138515038690599E-001	4.2238680E-004
2	1	0	1	1.591239959801896E+001	-5.1394308E-001	-5.1400948E-001	8.219350695135157E-001	4.2248241E-004
2	1	0	1	1.596239959675586E+001	-5.0894368E-001	-5.0900841E-001	8.301604431137117E-001	4.2255863E-004
2	1	0	0	1.601259959548770E+001	-5.0392109E-001	-5.0397676E-001	8.381950504769957E-001	4.2243084E-004
2	1	0	0	1.606259959422459E+001	-4.9892381E-001	-4.9897999E-001	8.458728286117481E-001	4.2207362E-004
2	1	0	0	1.611259959296149E+001	-4.9392283E-001	-4.9396658E-001	8.535776861335860E-001	4.2163886E-004
2	1	0	1	1.616269959169585E+001	-4.8891145E-001	-4.8895487E-001	8.597563537363848E-001	4.2038207E-004
2	1	0	1	1.621279959043022E+001	-4.8390430E-001	-4.8394507E-001	8.668069714669215E-001	4.1948695E-004
2	1	0	1	1.626279958916712E+001	-4.7890207E-001	-4.7894207E-001	8.743278121363769E-001	4.1875237E-004
2	1	0	0	1.631289958790148E+001	-4.7389287E-001	-4.7392818E-001	8.807216203032020E-001	4.1739878E-004
2	1	0	0	1.636299958663585E+001	-4.6888313E-001	-4.6890461E-001	8.869125612442677E-001	4.1587738E-004
2	1	0	0	1.641299958537275E+001	-4.6388096E-001	-4.6391955E-001	8.944257568200191E-001	4.1494161E-004
2	1	0	1	1.646309958410711E+001	-4.5887411E-001	-4.5891452E-001	8.995404185755063E-001	4.1281217E-004
2	1	0	1	1.651319958284148E+001	-4.5386258E-001	-4.5390305E-001	9.042722288852882E-001	4.1045193E-004
2	1	0	1	1.656319958157837E+001	-4.4886193E-001	-4.4889241E-001	9.093829537795148E-001	4.0821510E-004
2	1	0	1	1.661319958031527E+001	-4.4386420E-001	-4.4390693E-001	9.139661374771322E-001	4.0571589E-004
2	1	0	0	1.666339957904711E+001	-4.3884158E-001	-4.3888432E-001	9.190260189991114E-001	4.0334612E-004
2	1	0	0	1.671339957778400E+001	-4.3384287E-001	-4.3386832E-001	9.247273523344965E-001	4.0120989E-004
2	1	0	0	1.676339957652090E+001	-4.2884332E-001	-4.2886138E-001	9.304732070395362E-001	3.9904402E-004
2	1	0	1	1.681359957525274E+001	-4.2382064E-001	-4.2384547E-001	9.341913345029074E-001	3.9595275E-004
2	1	0	1	1.686359957398963E+001	-4.1882446E-001	-4.1885394E-001	9.383158084006527E-001	3.9301728E-004
2	1	0	1	1.691359957272653E+001	-4.1382232E-001	-4.1385373E-001	9.430203620483493E-001	3.9027250E-004
2	1	0	0	1.696369957146089E+001	-4.0881169E-001	-4.0883952E-001	9.475880753545631E-001	3.8741145E-004
2	1	0	0	1.701379957019526E+001	-4.0380371E-001	-4.0383983E-001	9.499333117774533E-001	3.8362091E-004
2	1	0	0	1.706379956893215E+001	-3.9880162E-001	-3.9884147E-001	9.547668191202598E-001	3.8080060E-004
2	1	0	1	1.711389956766652E+001	-3.9379287E-001	-3.9382422E-001	9.593009065199603E-001	3.7779592E-004
2	1	0	1	1.716399956640089E+001	-3.8878316E-001	-3.8882047E-001	9.638455160902986E-001	3.7476287E-004
2	1	0	1	1.721399956513778E+001	-3.8378069E-001	-3.8382459E-001	9.677882871712091E-001	3.7146095E-004
2	1	0	0	1.726409956387215E+001	-3.7877426E-001	-3.7882197E-001	9.719274172382901E-001	3.6818747E-004
2	1	0	0	1.731419956260652E+001	-3.7376213E-001	-3.7379709E-001	9.753537922202664E-001	3.6458441E-004
2	1	0	0	1.736419956134341E+001	-3.6876187E-001	-3.6880028E-001	9.776939889460117E-001	3.6057382E-004
2	1	0	0	1.741419956008031E+001	-3.6376348E-001	-3.6380789E-001	9.808002632957642E-001	3.5682286E-004
2	1	0	1	1.746439955881215E+001	-3.5874119E-001	-3.5879371E-001	9.836923721351774E-001	3.5294262E-004
2	1	0	1	1.751439955754904E+001	-3.5374326E-001	-3.5377413E-001	9.869977346939525E-001	3.4917425E-004
2	1	0	1	1.756439955628593E+001	-3.4874269E-001	-3.4878016E-001	9.909939955277434E-001	3.4563904E-004
2	1	0	0	1.761449955502030E+001	-3.4373069E-001	-3.4375015E-001	9.937125734705994E-001	3.4158883E-004
2	1	0	0	1.766459955375467E+001	-3.3872432E-001	-3.3875307E-001	9.967455608874989E-001	3.3765062E-004
2	1	0	0	1.771459955249156E+001	-3.3372197E-001	-3.3373812E-001	9.990856279540914E-001	3.3343295E-004
2	1	0	1	1.776469955122593E+001	-3.2871172E-001	-3.2872239E-001	1.001971014303408E+000	3.2937029E-004
2	1	0	1	1.781479954996030E+001	-3.2370362E-001	-3.2373661E-001	1.004331082231449E+000	3.2513874E-004
2	1	0	1	1.786479954869719E+001	-3.1870109E-001	-3.1874761E-001	1.006854425288976E+000	3.2093245E-004
2	1	0	0	1.791489954743156E+001	-3.1369311E-001	-3.1372979E-001	1.008820652713211E+000	3.1649708E-004
2	1	0	0	1.796499954616593E+001	-3.0868238E-001	-3.0873063E-001	1.010354766153091E+000	3.1192746E-004
2	1	0	0	1.801499954490282E+001	-3.0368075E-001	-3.0371249E-001	1.012615790276153E+000	3.0754405E-004
2	1	0	0	1.806499954363971E+001	-2.9868397E-001	-2.9873046E-001	1.013908740895085E+000	3.0288543E-004
2	1	0	1	1.811519954237156E+001	-2.9366180E-001	-2.9368269E-001	1.015854622175439E+000	2.9833891E-004
2	1	0	1	1.816519954110845E+001	-2.8866208E-001	-2.8868839E-001	1.018551835656356E+000	2.9404409E-004
2	1	0	1	1.823049953945883E+001	-2.8213400E-001	-2.8216723E-001	1.026168435242809E+000	2.8955110E-004
2	1	0	0	1.829579953780922E+001	-2.7560332E-001	-2.7568260E-001	1.025879636338381E+000	2.8281717E-004
2	1	0	1	1.834599953654106E+001	-2.7058104E-001	-2.7066895E-001	1.027968502372227E+000	2.7823917E-004
2	1	0	1	1.839599953527795E+001	-2.6558304E-001	-2.6568061E-001	1.030726325419378E+000	2.7384399E-004
2	1	0	1	1.844599953401485E+001	-2.6058257E-001	-2.6066563E-001	1.030709631492885E+000	2.6867058E-004
2	1	0	0	1.849609953274921E+001	-2.5557077E-001	-2.5563616E-001	1.031685934708422E+000	2.6373623E-004
2	1	0	0	1.854619953148358E+001	-2.5056386E-001	-2.5062314E-001	1.033530461053338E+000	2.5902665E-004
2	1	0	0	1.859619953022047E+001	-2.4556150E-001	-2.4564692E-001	1.036093851287301E+000	2.5451326E-004
2	1	0	1	1.864629952895484E+001	-2.4055216E-001	-2.4065246E-001	1.036071913016478E+000	2.4933324E-004
2	1	0	1	1.869639952768921E+001	-2.3554309E-001	-2.3563965E-001	1.037002182272735E+000	2.4435882E-004
2	1	0	1	1.874639952642610E+001	-2.3054074E-001	-2.3064132E-001	1.037373745690374E+000	2.3926125E-004
2	1	0	0	1.879649952516047E+001	-2.2553341E-001	-2.2563459E-001	1.038559560775872E+000	2.3433496E-004
2	1	0	0	1.884659952389484E+001	-2.2052212E-001	-2.2062947E-001	1.038838713906802E+000	2.2919843E-004
2	1	0	0	1.889659952263173E+001	-2.1552096E-001	-2.1561663E-001	1.039832477322019E+000	2.2420517E-004
2	1	0	0	1.894659952136863E+001	-2.1052375E-001	-2.1061948E-001	1.040950264996404E+000	2.1924441E-004
2	1	0	1	1.899679952010047E+001	-2.0550132E-001	-2.0560627E-001	1.042892672323074E+000	2.1442526E-004
2	1	0	1	1.904679951883736E+001	-2.0050195E-001	-2.0061533E-001	1.045280780423862E+000	2.0969936E-004
2	1	0	1	1.909679951757425E+001	-1.9550297E-001	-1.9559917E-001	1.046914358833648E+000	2.0477558E-004
2	1	0	0	1.914699951630610E+001	-1.9048049E-001	-1.9057342E-001	1.047971731092191E+000	1.9971556E-004
2	1	0	0	1.919699951504299E+001	-1.8548346E-001	-1.8558103E-001	1.048912740495929E+000	1.9465831E-004
2	1	0	0	1.924699951377988E+001	-1.8048203E-001	-1.8057249E-001	1.049514974247167E+000	1.8951354E-004
2	1	0	1	1.929709951251425E+001	-1.7547080E-001	-1.7557065E-001	1.048750554671781E+000	1.8412982E-004
2	1	0	1	1.934719951124862E+001	-1.7046335E-001	-1.7054921E-001	1.050458054816549E+000	1.7915480E-004
2	1	0	1	1.939719950998551E+001	-1.6546123E-001	-1.6554689E-001	1.049862751679052E+000	1.7380151E-004
2	1	0	0	1.944729950871988E+001	-1.6045216E-001	-1.6052338E-001	1.051053906068555E+000	1.6871873E-004
2	1	0	0	1.949739950745425E+001	-1.5544266E-001	-1.5551198E-001	1.052906618787806E+000	1.6373959E-004
2	1	0	0	1.954739950619114E+001	-1.5044034E-001	-1.5051034E-001	1.054038440920078E+000	1.5864368E-004
2	1	0	1	1.959749950492551E+001	-1.4543350E-001	-1.4551224E-001	1.053076494250757E+000	1.5323552E-004
2	1	0	1	1.964759950365988E+001	-1.4042175E-001	-1.4048508E-001	1.052746446414560E+000	1.4789516E-004
2	1	0	1	1.969759950239677E+001	-1.3542098E-001	-1.3547257E-001	1.054695953558384E+000	1.4288236E-004
2	1	0	1	1.974759950113366E+001	-1.3042350E-001	-1.3047707E-001	1.056101347145184E+000	1.3779700E-004
2	1	0	0	1.979779949986550E+001	-1.2540098E-001	-1.2545289E-001	1.056253772190162E+000	1.3251009E-004
2	1	0	0	1.984779949860240E+001	-1.2040234E-001	-1.2045539E-001	1.055750350321096E+000	1.2717082E-004
2	1	0	0	1.989779949733929E+001	-1.1540260E-001	-1.1545455E-001	1.056568263152130E+000	1.2198562E-004
2	1	0	1	1.994799949607113E+001	-1.1038000E-001	-1.1043365E-001	1.058545107572422E+000	1.1689900E-004
2	1	0	1	1.999799949480803E+001	-1.0538353E-001	-1.0543780E-001	1.059021727664241E+000	1.1166092E-004
2	1	0	1	2.004799949354492E+001	-1.0038175E-001	-1.0044319E-001	1.059294134371253E+000	1.0639888E-004
2	1	0	0	2.009809949227929E+001	-9.5371015E-002	-9.5433518E-002	1.060796413388427E+000	1.0123554E-004
2	1	0	0	2.014819949101366E+001	-9.0363219E-002	-9.0425499E-002	1.061538677629148E+000	9.5990166E-005
2	1	0	0	2.019819948975055E+001	-8.5360803E-002	-8.5434265E-002	1.061953693568244E+000	9.0727233E-005
2	1	0	1	2.024829948848492E+001	-8.0352269E-002	-8.0412090E-002	1.064097414636564E+000	8.5566295E-005
2	1	0	1	2.029839948721929E+001	-7.5342260E-002	-7.5401604E-002	1.065693482767588E+000	8.0354999E-005
2	1	0	1	2.034839948595618E+001	-7.0339829E-002	-7.0416369E-002	1.067669166181934E+000	7.5181386E-005
2	1	0	0	2.039849948469055E+001	-6.5333568E-002	-6.5398730E-002	1.067560113056835E+000	6.9817077E-005
2	1	0	0	2.044859948342491E+001	-6.0321517E-002	-6.0391787E-002	1.068602304996737E+000	6.4534805E-005
2	1	0	0	2.049859948216181E+001	-5.5321116E-002	-5.5384550E-002	1.067157605123446E+000	5.9104044E-005
2	1	0	0	2.054859948089870E+001	-5.0322942E-002	-5.0395317E-002	1.066328017904826E+000	5.3737938E-005
2	1	0	1	2.059879947963054E+001	-4.5300569E-002	-4.5362864E-002	1.067462417228242E+000	4.8423153E-005
2	1	0	1	2.064879947836744E+001	-4.0302407E-002	-4.0353637E-002	1.068339551248542E+000	4.3111388E-005
2	1	0	1	2.069879947710433E+001	-3.5302233E-002	-3.5366639E-002	1.069401511246221E+000	3.7821137E-005
2	1	0	0	2.074889947583870E+001	-3.0289926E-002	-3.0346742E-002	1.070106871372392E+000	3.2474258E-005
2	1	0	0	2.079899947457307E+001	-2.5283698E-002	-2.5353393E-002	1.071130660426707E+000	2.7156797E-005
2	1	0	0	2.084899947330996E+001	-2.0281291E-002	-2.0342126E-002	1.071536401609068E+000	2.1797328E-005
2	1	0	1	2.089909947204433E+001	-1.5271211E-002	-1.5335589E-002	1.070892603633066E+000	1.6422768E-005
2	1	0	1	2.094919947077869E+001	-1.0262750E-002	-1.0343940E-002	1.071378316720885E+000	1.1082273E-005
2	1	0	1	2.099919946951559E+001	-5.2603451E-003	-5.3467713E-003	1.071351760753035E+000	5.7282728E-006
2	1	0	0	2.104929946824996E+001	-2.5249080E-004	-3.2649012E-004	1.072188719194619E+000	3.5005903E-007
2	1	0	0	2.109939946698432E+001	4.7579720E-003	4.6859053E-003	1.072318676134687E+000	5.0247836E-006
2	1	0	0	2.114939946572122E+001	9.7599523E-003	9.6934885E-003	1.073397126310130E+000	1.0404962E-005
2	1	0	0	2.119939946445811E+001	1.4756480E-002	1.4686784E-002	1.073682653117165E+000	1.5768945E-005
2	1	0	1	2.124959946318995E+001	1.9778853E-002	1.9709501E-002	1.075044398036458E+000	2.1188589E-005
2	1	0	1	2.129959946192685E+001	2.4778610E-002	2.4702186E-002	1.075529608382340E+000	2.6567932E-005
2	1	0	1	2.134959946066374E+001	2.9777348E-002	2.9711688E-002	1.075576527285163E+000	3.1957195E-005
2	1	0	0	2.139979945939558E+001	3.4799505E-002	3.4731790E-002	1.075441980105468E+000	3.7352027E-005
2	1	0	0	2.144979945813247E+001	3.9797269E-002	3.9727364E-002	1.075903302719221E+000	4.2742802E-005
2	1	0	0	2.149979945686937E+001	4.4798046E-002	4.4724166E-002	1.075895765739677E+000	4.8118542E-005
2	1	0	1	2.154989945560374E+001	4.9809698E-002	4.9739797E-002	1.074725948977040E+000	5.3456650E-005
2	1	0	1	2.159999945433810E+001	5.4816533E-002	5.4751385E-002	1.074570743679729E+000	5.8834237E-005
2	1	0	1	2.164999945307500E+001	5.9818923E-002	5.9756592E-002	1.073326614768929E+000	6.4138338E-005
2	1	0	0	2.170009945180936E+001	6.4828344E-002	6.4776711E-002	1.074483419166814E+000	6.9601505E-005
2	1	0	0	2.175019945054373E+001	6.9837220E-002	6.9780350E-002	1.076057189506602E+000	7.5087650E-005
2	1	0	0	2.180019944928063E+001	7.4839763E-002	7.4781373E-002	1.077008745603667E+000	8.0540194E-005
2	1	0	1	2.185029944801499E+001	7.9846978E-002	7.9795569E-002	1.078810536878592E+000	8.6084299E-005
2	1	0	1	2.190039944674936E+001	8.4858067E-002	8.4799372E-002	1.079382332027787E+000	9.1530943E-005
2	1	0	1	2.195039944548626E+001	8.9859344E-002	8.9810036E-002	1.079273954764282E+000	9.6929631E-005
2	1	0	1	2.200039944422315E+001	9.4856553E-002	9.4795495E-002	1.080095029854466E+000	1.0238814E-004
2	1	0	0	2.203849944326066E+001	9.8670453E-002	9.8621108E-002	1.081390410969696E+000	1.0664792E-004
2	1	0	0	2.205179944292468E+001	9.9997252E-002	9.9994197E-002	1.089278101921082E+000	1.0892149E-004