EC-Lab ASCII FILE
Nb header lines : 55                          

I-V Characterization

Run on channel : 1 (SN 6514)
User : 
CE vs. WE compliance from -10 V to 10 V
Electrode connection : standard
Ewe ctrl range : min = -1.10 V, max = 0.20 V
Safety Limits :
	Do not start on E overload
Acquisition started on : 06/15/2016 19:35:12
Saved on :
	File : B125-G54-UN-G-D1GB-C11 FW 100mVs dark_C01.mpr
	Directory : E:\EC-Lab measurements\B125-G54-UN-G-D1GB\
	Host : 10.0.2.15
Device : VSP (SN 0295)
Address : USB
EC-Lab for windows v11.01 (software)
Internet server v11.00 (firmware)
Command interpretor v11.00 (firmware)
Electrode material : 
Initial state : 
Electrolyte : 
Comments : 
Electrode surface area : 0.001 cm²
Characteristic mass : 0.001 g
Equivalent Weight : 0.000 g/eq.
Density : 0.000 g/cm3
tR (h:m:s)          0:00:0.0000         
dER/dt (mV/h)       0.0                 
dER (mV)            0                   
dtR (s)             0.0000              
dE/dt               100.000             
dE/dt unit          mV/s                
Ei (V)              0.100               
vs.                 Ref                 
EL (V)              -1.000              
vs.                 Ref                 
record              <I>                 
dI                  0.000               
unit dI             µA                  
tI (s)              0.1000              
step percent        100                 
N                   100                 
E range min (V)     -1.100              
E range max (V)     0.200               
I Range             Auto                
I Range min         Unset               
I Range max         Unset               
I Range init        Unset               
Bandwidth           5                   

mode	ox/red	error	control changes	time/s	control/V	Ewe/V	<I>/mA	P/W
2	0	0	1	8.039999796892516E-002	9.6993521E-002	9.7014889E-002	1.479007303714752E-003	1.4348574E-007
2	0	0	0	1.056999973297934E-001	9.4465211E-002	9.4451346E-002	1.368771525795873E-003	1.2928231E-007
2	0	0	0	1.710999956776504E-001	8.7929122E-002	8.7901644E-002	1.154843038165806E-003	1.0151260E-007
2	0	0	1	2.363999940280337E-001	8.1398934E-002	8.1378207E-002	9.809599415462750E-004	7.9828759E-008
2	0	0	1	2.863999927649274E-001	7.6396704E-002	7.6373838E-002	8.637274411749645E-004	6.5966177E-008
2	0	0	0	3.364999914992950E-001	7.1386509E-002	7.1350001E-002	7.575227306449994E-004	5.4049249E-008
2	0	0	0	3.865999902336625E-001	6.6378236E-002	6.6346258E-002	6.645649165658071E-004	4.4091394E-008
2	0	0	0	4.365999889705563E-001	6.1375830E-002	6.1351594E-002	5.692056153333540E-004	3.4921673E-008
2	0	0	1	4.866999877049238E-001	5.6367833E-002	5.6343019E-002	4.958310166315535E-004	2.7936617E-008
2	0	0	1	5.367999864392914E-001	5.1357362E-002	5.1313594E-002	4.189460054041380E-004	2.1497625E-008
2	0	0	1	5.867999851761851E-001	4.6355389E-002	4.6322349E-002	3.487888747916185E-004	1.6156720E-008
2	0	0	1	6.367999839130789E-001	4.1359074E-002	4.1317195E-002	2.799028598118102E-004	1.1564801E-008
2	0	0	0	6.869999826449202E-001	3.6336713E-002	3.6308728E-002	2.190383144503247E-004	7.9530027E-009
2	0	0	0	7.369999813818140E-001	3.1336755E-002	3.1296719E-002	1.614461022776373E-004	5.0527333E-009
2	0	0	0	7.869999801187078E-001	2.6338194E-002	2.6291048E-002	1.046549486699833E-004	2.7514884E-009
2	0	0	1	8.371999788505491E-001	2.1315835E-002	2.1293178E-002	4.967950630735819E-005	1.0578346E-009
2	0	0	1	8.871999775874428E-001	1.6318094E-002	1.6281124E-002	-1.254040714097977E-006	2.0417192E-011
2	0	0	1	9.371999763243366E-001	1.1317321E-002	1.1263220E-002	-5.113021371231285E-005	5.7589084E-010
2	0	0	0	9.872999750587041E-001	6.3056569E-003	6.2424717E-003	-9.919599722718215E-005	6.1922822E-010
2	0	0	0	1.037399973793072E+000	1.2990338E-003	1.2515205E-003	-1.457293101871130E-004	1.8238322E-010
2	0	0	0	1.087399972529965E+000	-3.7033611E-003	-3.7569597E-003	-1.907626665196118E-004	7.1668765E-010
2	0	0	1	1.137499971264333E+000	-8.7130331E-003	-8.7758731E-003	-2.345308528266653E-004	2.0582129E-009
2	0	0	1	1.187599969998701E+000	-1.3721895E-002	-1.3765744E-002	-2.781942084810586E-004	3.8295505E-009
2	0	0	1	1.237599968735594E+000	-1.8724302E-002	-1.8758327E-002	-3.229542853534573E-004	6.0580820E-009
2	0	0	0	1.287699967469962E+000	-2.3731761E-002	-2.3756174E-002	-3.637680336082737E-004	8.6417371E-009
2	0	0	0	1.337799966204329E+000	-2.8742639E-002	-2.8780399E-002	-4.037023012941022E-004	1.1618713E-008
2	0	0	0	1.387799964941223E+000	-3.3744227E-002	-3.3775713E-002	-4.435173063969643E-004	1.4980113E-008
2	0	0	0	1.437799963678117E+000	-3.8741175E-002	-3.8781393E-002	-4.838798215964664E-004	1.8765533E-008
2	0	0	1	1.487999962409958E+000	-4.3763574E-002	-4.3798197E-002	-5.264184866939359E-004	2.3056181E-008
2	0	0	1	1.537999961146852E+000	-4.8762985E-002	-4.8794910E-002	-5.668647294281787E-004	2.7660114E-008
2	0	0	1	1.587999959883746E+000	-5.3762134E-002	-5.3794134E-002	-6.110701835169794E-004	3.2871991E-008
2	0	0	0	1.638199958615587E+000	-5.8784347E-002	-5.8804896E-002	-6.520598630285280E-004	3.8344311E-008
2	0	0	0	1.688199957352481E+000	-6.3781686E-002	-6.3806266E-002	-6.937982145779967E-004	4.4268674E-008
2	0	0	0	1.738199956089375E+000	-6.8782844E-002	-6.8818800E-002	-7.383522874997665E-004	5.0812517E-008
2	0	0	1	1.788299954823742E+000	-7.3794171E-002	-7.3819257E-002	-7.865490882153353E-004	5.8062469E-008
2	0	0	1	1.838399953558110E+000	-7.8801356E-002	-7.8836679E-002	-8.304393581165109E-004	6.5469081E-008
2	0	0	1	1.888399952295003E+000	-8.3803780E-002	-8.3854921E-002	-8.784800354279449E-004	7.3664872E-008
2	0	0	0	1.938499951029371E+000	-8.8812873E-002	-8.8856094E-002	-9.271264458056564E-004	8.2380836E-008
2	0	0	0	1.988599949763739E+000	-9.3822084E-002	-9.3855634E-002	-9.730445141609596E-004	9.1325710E-008
2	0	0	0	2.038599948500632E+000	-9.8824568E-002	-9.8853603E-002	-1.020882039047580E-003	1.0091787E-007
2	0	0	1	2.088699947235000E+000	-1.0383155E-001	-1.0386066E-001	-1.073755353038226E-003	1.1152094E-007
2	0	0	1	2.138799945969367E+000	-1.0884300E-001	-1.0887935E-001	-1.124935018514820E-003	1.2248219E-007
2	0	0	1	2.188799944706261E+000	-1.1384419E-001	-1.1387417E-001	-1.181341798597215E-003	1.3452433E-007
2	0	0	1	2.238799943443155E+000	-1.1884167E-001	-1.1885802E-001	-1.239938203035920E-003	1.4737660E-007
2	0	0	0	2.288999942174996E+000	-1.2386402E-001	-1.2388651E-001	-1.299119714355070E-003	1.6094342E-007
2	0	0	0	2.338999940911890E+000	-1.2886286E-001	-1.2888944E-001	-1.357099696289530E-003	1.7491583E-007
2	0	0	0	2.388999939648784E+000	-1.3386235E-001	-1.3388607E-001	-1.417575343581820E-003	1.8979360E-007
2	0	0	1	2.439199938380625E+000	-1.3888477E-001	-1.3891453E-001	-1.483401917403274E-003	2.0606608E-007
2	0	0	1	2.489199937117519E+000	-1.4388163E-001	-1.4393669E-001	-1.550191503444865E-003	2.2312943E-007
2	0	0	1	2.539199935854413E+000	-1.4888336E-001	-1.4893265E-001	-1.619108048858280E-003	2.4113805E-007
2	0	0	0	2.589299934588780E+000	-1.5389392E-001	-1.5392283E-001	-1.687190824770958E-003	2.5969717E-007
2	0	0	0	2.639399933323148E+000	-1.5890183E-001	-1.5894525E-001	-1.762045139637403E-003	2.8006869E-007
2	0	0	0	2.689399932060041E+000	-1.6390401E-001	-1.6395570E-001	-1.846046849103656E-003	3.0266992E-007
2	0	0	1	2.739499930794409E+000	-1.6891268E-001	-1.6895662E-001	-1.927046090453471E-003	3.2558719E-007
2	0	0	1	2.789599929528777E+000	-1.7392249E-001	-1.7397621E-001	-2.045664504055689E-003	3.5589696E-007
2	0	0	1	2.839599928265670E+000	-1.7892505E-001	-1.7899120E-001	-2.136379263307450E-003	3.8239310E-007
2	0	0	0	2.889699927000038E+000	-1.8393146E-001	-1.8400909E-001	-2.252077020072827E-003	4.1440265E-007
2	0	0	0	2.939799925734405E+000	-1.8894343E-001	-1.8899888E-001	-2.352440755459805E-003	4.4460867E-007
2	0	0	0	2.989799924471299E+000	-1.9394398E-001	-1.9400252E-001	-2.447661486930169E-003	4.7485250E-007
2	0	0	0	3.039799923208193E+000	-1.9894172E-001	-1.9901600E-001	-2.550236602251347E-003	5.0753789E-007
2	0	0	1	3.089999921940034E+000	-2.0396422E-001	-2.0403580E-001	-2.666381297177035E-003	5.4403728E-007
2	0	0	1	3.139999920676928E+000	-2.0896278E-001	-2.0902878E-001	-2.786064731732745E-003	5.8236770E-007
2	0	0	1	3.189999919413822E+000	-2.1396297E-001	-2.1403094E-001	-2.899482587387731E-003	6.2057899E-007
2	0	0	0	3.240099918148189E+000	-2.1897505E-001	-2.1904385E-001	-3.034295814831701E-003	6.6464384E-007
2	0	0	0	3.290199916882557E+000	-2.2398150E-001	-2.2405259E-001	-3.181065364301273E-003	7.1272592E-007
2	0	0	0	3.340199915619451E+000	-2.2898370E-001	-2.2905086E-001	-3.348446229812215E-003	7.6696449E-007
2	0	0	1	3.390299914353818E+000	-2.3399378E-001	-2.3405379E-001	-3.483698512695903E-003	8.1537286E-007
2	0	0	1	3.440399913088186E+000	-2.3900221E-001	-2.3907001E-001	-3.639263000724854E-003	8.7003866E-007
2	0	0	1	3.490399911825079E+000	-2.4400450E-001	-2.4407138E-001	-3.813870959644502E-003	9.3085674E-007
2	0	0	0	3.540499910559447E+000	-2.4901254E-001	-2.4905145E-001	-3.999293267689736E-003	9.9602983E-007
2	0	0	0	3.590599909293815E+000	-2.5402313E-001	-2.5406659E-001	-4.192468742772751E-003	1.0651662E-006
2	0	0	0	3.640599908030708E+000	-2.5902519E-001	-2.5907058E-001	-4.400604385259261E-003	1.1400671E-006
2	0	0	0	3.690599906767602E+000	-2.6402122E-001	-2.6408091E-001	-4.610212479425599E-003	1.2174692E-006
2	0	0	1	3.740799905499443E+000	-2.6904374E-001	-2.6909909E-001	-4.827361551455113E-003	1.2990386E-006
2	0	0	1	3.790799904236337E+000	-2.7404371E-001	-2.7407160E-001	-5.078453325365856E-003	1.3918599E-006
2	0	0	1	3.840799902973231E+000	-2.7904239E-001	-2.7908707E-001	-5.314649065136640E-003	1.4832498E-006
2	0	0	0	3.890999901705072E+000	-2.8406462E-001	-2.8412044E-001	-5.553933776388964E-003	1.5779862E-006
2	0	0	0	3.940999900441966E+000	-2.8906259E-001	-2.8909466E-001	-5.837452557284566E-003	1.6875763E-006
2	0	0	0	3.990999899178860E+000	-2.9406303E-001	-2.9410121E-001	-6.137470948370610E-003	1.8050376E-006
2	0	0	1	4.041099897913227E+000	-2.9907477E-001	-2.9913157E-001	-6.432069198261461E-003	1.9240349E-006
2	0	0	1	4.091199896647595E+000	-3.0408183E-001	-3.0413726E-001	-6.736535653146095E-003	2.0488314E-006
2	0	0	1	4.141199895384489E+000	-3.0908397E-001	-3.0912995E-001	-7.066160475854032E-003	2.1843618E-006
2	0	0	0	4.191299894118856E+000	-3.1409356E-001	-3.1413275E-001	-7.413767029130214E-003	2.3289069E-006
2	0	0	0	4.241399892853224E+000	-3.1910267E-001	-3.1916022E-001	-7.792102361546455E-003	2.4869291E-006
2	0	0	0	4.291399891590117E+000	-3.2410502E-001	-3.2415238E-001	-8.206208968851741E-003	2.6600621E-006
2	0	0	1	4.341499890324485E+000	-3.2911223E-001	-3.2913291E-001	-8.596649195591555E-003	2.8294403E-006
2	0	0	1	4.391599889058853E+000	-3.3412349E-001	-3.3414611E-001	-9.010476274094320E-003	3.0108156E-006
2	0	0	1	4.441599887795746E+000	-3.3912471E-001	-3.3915782E-001	-9.484250091904595E-003	3.2166577E-006
2	0	0	1	4.491599886532640E+000	-3.4412181E-001	-3.4416044E-001	-9.939409597928189E-003	3.4207515E-006
2	0	0	0	4.556799884885550E+000	-3.5064486E-001	-3.5066909E-001	-1.058262239231825E-002	3.7109985E-006
2	0	0	0	4.621799883243511E+000	-3.5714424E-001	-3.5717642E-001	-1.129617733089285E-002	4.0347281E-006
2	0	0	1	4.671899881977879E+000	-3.6215344E-001	-3.6219454E-001	-1.185736919939263E-002	4.2946745E-006
2	0	0	1	4.721999880712247E+000	-3.6716267E-001	-3.6720404E-001	-1.246293263607039E-002	4.5764391E-006
2	0	0	1	4.771999879449140E+000	-3.7216488E-001	-3.7219822E-001	-1.309905767290111E-002	4.8754459E-006
2	0	0	0	4.822099878183508E+000	-3.7717226E-001	-3.7720332E-001	-1.371809762493408E-002	5.1745119E-006
2	0	0	0	4.872199876917875E+000	-3.8218382E-001	-3.8222104E-001	-1.439396538978696E-002	5.5016762E-006
2	0	0	0	4.922199875654769E+000	-3.8718504E-001	-3.8721195E-001	-1.512628168757602E-002	5.8570772E-006
2	0	0	0	4.972199874391663E+000	-3.9218202E-001	-3.9222679E-001	-1.585231956504113E-002	6.2177041E-006
2	0	0	1	5.022399873123504E+000	-3.9720467E-001	-3.9724895E-001	-1.669184918413269E-002	6.6308198E-006
2	0	0	1	5.072399871860398E+000	-4.0220335E-001	-4.0225297E-001	-1.749370428418696E-002	7.0368947E-006
2	0	0	1	5.122399870597292E+000	-4.0720287E-001	-4.0722913E-001	-1.838235425163443E-002	7.4858299E-006
2	0	0	0	5.172599869329133E+000	-4.1222531E-001	-4.1224986E-001	-1.929678789292648E-002	7.9550982E-006
2	0	0	0	5.222599868066027E+000	-4.1722244E-001	-4.1725516E-001	-2.025965327051837E-002	8.4534449E-006
2	0	0	0	5.272599866802921E+000	-4.2222381E-001	-4.2225415E-001	-2.125654974109317E-002	8.9756659E-006
2	0	0	1	5.322699865537288E+000	-4.2723486E-001	-4.2726061E-001	-2.229141823621555E-002	9.5242449E-006
2	0	0	1	5.372799864271656E+000	-4.3224227E-001	-4.3226182E-001	-2.338893890165263E-002	1.0110145E-005
2	0	0	1	5.422799863008549E+000	-4.3724439E-001	-4.3728513E-001	-2.451889469632729E-002	1.0721748E-005
2	0	0	0	5.472899861742917E+000	-4.4225341E-001	-4.4228125E-001	-2.563429740931111E-002	1.1337569E-005
2	0	0	0	5.522999860477285E+000	-4.4726339E-001	-4.4728482E-001	-2.689163446764248E-002	1.2028220E-005
2	0	0	0	5.572999859214178E+000	-4.5226562E-001	-4.5229414E-001	-2.822068060773408E-002	1.2764049E-005
2	0	0	1	5.623099857948546E+000	-4.5727211E-001	-4.5729530E-001	-2.957276047891765E-002	1.3523484E-005
2	0	0	1	5.673199856682913E+000	-4.6228409E-001	-4.6230865E-001	-3.098938158155307E-002	1.4326659E-005
2	0	0	1	5.723199855419807E+000	-4.6728438E-001	-4.6731120E-001	-3.245650583605302E-002	1.5167288E-005
2	0	0	1	5.773199854156701E+000	-4.7228232E-001	-4.7232068E-001	-3.402572023104122E-002	1.6071052E-005
2	0	0	0	5.823399852888542E+000	-4.7730491E-001	-4.7734186E-001	-3.563297829534418E-002	1.7009112E-005
2	0	0	0	5.873399851625436E+000	-4.8230356E-001	-4.8234275E-001	-3.716638621688756E-002	1.7926937E-005
2	0	0	0	5.923399850362330E+000	-4.8730317E-001	-4.8733971E-001	-3.899614411829477E-002	1.9004370E-005
2	0	0	1	5.973599849094171E+000	-4.9232590E-001	-4.9237421E-001	-4.079706023513752E-002	2.0087420E-005
2	0	0	1	6.023599847831065E+000	-4.9732184E-001	-4.9737734E-001	-4.269805156918473E-002	2.1237043E-005
2	0	0	1	6.073599846567959E+000	-5.0232416E-001	-5.0237763E-001	-4.470062940427166E-002	2.2456596E-005
2	0	0	0	6.123699845302326E+000	-5.0733459E-001	-5.0738794E-001	-4.673637826115505E-002	2.3713474E-005
2	0	0	0	6.173799844036694E+000	-5.1234287E-001	-5.1239073E-001	-4.883307432720896E-002	2.5021614E-005
2	0	0	0	6.223799842773587E+000	-5.1734495E-001	-5.1740015E-001	-5.102058714034929E-002	2.6398060E-005
2	0	0	1	6.273899841507955E+000	-5.2235341E-001	-5.2241540E-001	-5.335626911567659E-002	2.7874137E-005
2	0	0	1	6.323999840242323E+000	-5.2736342E-001	-5.2741307E-001	-5.568706233715272E-002	2.9370085E-005
2	0	0	1	6.373999838979216E+000	-5.3236550E-001	-5.3241920E-001	-5.803961801765056E-002	3.0901407E-005
2	0	0	1	6.423999837716110E+000	-5.3736204E-001	-5.3740972E-001	-6.058272149544575E-002	3.2557742E-005
2	0	0	0	6.474199836447951E+000	-5.4238462E-001	-5.4244184E-001	-6.311761669966870E-002	3.4237637E-005
2	0	0	0	6.524199835184845E+000	-5.4738456E-001	-5.4743594E-001	-6.592365452364490E-002	3.6088979E-005
2	0	0	0	6.574199833921739E+000	-5.5238277E-001	-5.5245531E-001	-6.871759909961908E-002	3.7963404E-005
2	0	0	1	6.624399832653580E+000	-5.5740523E-001	-5.5747753E-001	-7.167600195535395E-002	3.9957762E-005
2	0	0	1	6.674399831390474E+000	-5.6240284E-001	-5.6246120E-001	-7.474939578359141E-002	4.2043634E-005
2	0	0	1	6.724399830127368E+000	-5.6740361E-001	-5.6746089E-001	-7.778270670044640E-002	4.4138644E-005
2	0	0	0	6.774499828861735E+000	-5.7241565E-001	-5.7247883E-001	-8.099282404653430E-002	4.6366677E-005
2	0	0	0	6.824599827596103E+000	-5.7742232E-001	-5.7748067E-001	-8.430943213882269E-002	4.8687067E-005
2	0	0	0	6.874599826332997E+000	-5.8242428E-001	-5.8246857E-001	-8.785795249716477E-002	5.1174495E-005
2	0	0	1	6.924699825067364E+000	-5.8743459E-001	-5.8748263E-001	-9.137803243030534E-002	5.3683008E-005
2	0	0	1	6.974799823801732E+000	-5.9244275E-001	-5.9249634E-001	-9.507646712451523E-002	5.6332457E-005
2	0	0	1	7.024799822538625E+000	-5.9744525E-001	-5.9750652E-001	-9.900855167549882E-002	5.9158254E-005
2	0	0	0	7.089999820891535E+000	-6.0396421E-001	-6.0399610E-001	-1.041424977701810E-001	6.2901665E-005
2	0	0	0	7.154999819249497E+000	-6.1046308E-001	-6.1054069E-001	-1.094873286790334E-001	6.6846471E-005
2	0	0	0	7.204999817986391E+000	-6.1546397E-001	-6.1552924E-001	-1.137568271016411E-001	7.0020651E-005
2	0	0	1	7.255099816720758E+000	-6.2047565E-001	-6.2054402E-001	-1.181535728473466E-001	7.3319490E-005
2	0	0	1	7.305199815455126E+000	-6.2548202E-001	-6.2555623E-001	-1.226638756474572E-001	7.6733151E-005
2	0	0	1	7.355199814192019E+000	-6.3048464E-001	-6.3055432E-001	-1.270936253396953E-001	8.0139434E-005
2	0	0	0	7.405299812926387E+000	-6.3549417E-001	-6.3555700E-001	-1.318386339070467E-001	8.3790968E-005
2	0	0	0	7.455399811660754E+000	-6.4050341E-001	-6.4055431E-001	-1.367742238428644E-001	8.7611319E-005
2	0	0	0	7.505399810397648E+000	-6.4550537E-001	-6.4552969E-001	-1.418474644779033E-001	9.1566748E-005
2	0	0	1	7.555499809132016E+000	-6.5051311E-001	-6.5056729E-001	-1.470322192794382E-001	9.5654352E-005
2	0	0	1	7.605599807866383E+000	-6.5552413E-001	-6.5555477E-001	-1.524007145374999E-001	9.9907018E-005
2	0	0	1	7.655599806603277E+000	-6.6052520E-001	-6.6055846E-001	-1.578710381006866E-001	1.0428305E-004
2	0	0	1	7.705599805340171E+000	-6.6552269E-001	-6.6555518E-001	-1.634851613442470E-001	1.0880840E-004
2	0	0	0	7.755799804072012E+000	-6.7054492E-001	-6.7058301E-001	-1.692308550594879E-001	1.1348334E-004
2	0	0	0	7.805799802808906E+000	-6.7554414E-001	-6.7557609E-001	-1.750771241955380E-001	1.1827792E-004
2	0	0	0	7.855799801545800E+000	-6.8054366E-001	-6.8057823E-001	-1.810604579957458E-001	1.2322581E-004
2	0	0	1	7.905999800277641E+000	-6.8556601E-001	-6.8558729E-001	-1.874034171046137E-001	1.2848141E-004
2	0	0	1	7.955999799014535E+000	-6.9056267E-001	-6.9060791E-001	-1.936702978462699E-001	1.3375023E-004
2	0	0	1	8.005999797751429E+000	-6.9556433E-001	-6.9559872E-001	-2.000596038549634E-001	1.3916120E-004
2	0	0	0	8.056099796485796E+000	-7.0057529E-001	-7.0060509E-001	-2.066123579692682E-001	1.4475366E-004
2	0	0	0	8.106199795220164E+000	-7.0558304E-001	-7.0563650E-001	-2.134986421764111E-001	1.5065243E-004
2	0	0	0	8.156199793957057E+000	-7.1058524E-001	-7.1063077E-001	-2.203165039035770E-001	1.5656369E-004
2	0	0	1	8.206299792691425E+000	-7.1559441E-001	-7.1563572E-001	-2.275194989869350E-001	1.6282107E-004
2	0	0	1	8.256399791425793E+000	-7.2060347E-001	-7.2063369E-001	-2.346909267005364E-001	1.6912619E-004
2	0	0	1	8.306399790162686E+000	-7.2560596E-001	-7.2562343E-001	-2.420500246604469E-001	1.7563716E-004
2	0	0	0	8.356499788897054E+000	-7.3061281E-001	-7.3064899E-001	-2.495977877389866E-001	1.8236837E-004
2	0	0	0	8.406599787631421E+000	-7.3562449E-001	-7.3563296E-001	-2.574330217795477E-001	1.8937621E-004
2	0	0	0	8.456599786368315E+000	-7.4062526E-001	-7.4065286E-001	-2.653885420856312E-001	1.9656078E-004
2	0	0	0	8.506599785105209E+000	-7.4562335E-001	-7.4565148E-001	-2.735298030766513E-001	2.0395790E-004
2	0	0	1	8.556799783837050E+000	-7.5064558E-001	-7.5066173E-001	-2.817986532865762E-001	2.1153546E-004
2	0	0	1	8.606799782573944E+000	-7.5564390E-001	-7.5567347E-001	-2.902476993669918E-001	2.1933249E-004
2	0	0	1	8.656799781310838E+000	-7.6064396E-001	-7.6067960E-001	-2.989232860850874E-001	2.2738485E-004
2	0	0	0	8.706999780042679E+000	-7.6566595E-001	-7.6569974E-001	-3.076854026020410E-001	2.3559463E-004
2	0	0	0	8.756999778779573E+000	-7.7066278E-001	-7.7072167E-001	-3.165838308807567E-001	2.4399802E-004
2	0	0	0	8.806999777516467E+000	-7.7566493E-001	-7.7570695E-001	-3.256408393663666E-001	2.5260187E-004
2	0	0	1	8.857099776250834E+000	-7.8067559E-001	-7.8071392E-001	-3.348802760654657E-001	2.6144570E-004
2	0	0	1	8.907199774985202E+000	-7.8568292E-001	-7.8572530E-001	-3.443825098863273E-001	2.7059004E-004
2	0	0	1	8.957199773722095E+000	-7.9068565E-001	-7.9073238E-001	-3.539358020147612E-001	2.7986849E-004
2	0	0	0	9.007299772456463E+000	-7.9569393E-001	-7.9575461E-001	-3.638414173128048E-001	2.8952849E-004
2	0	0	0	9.057399771190831E+000	-8.0070394E-001	-8.0076212E-001	-3.740115084986382E-001	2.9949425E-004
2	0	0	0	9.107399769927724E+000	-8.0570644E-001	-8.0575693E-001	-3.840555215108230E-001	3.0945538E-004
2	0	0	1	9.157499768662092E+000	-8.1071305E-001	-8.1077552E-001	-3.945443511030193E-001	3.1988689E-004
2	0	0	1	9.207599767396459E+000	-8.1572509E-001	-8.1578308E-001	-4.051737186729882E-001	3.3053386E-004
2	0	0	1	9.257599766133353E+000	-8.2072514E-001	-8.2078862E-001	-4.158157392848362E-001	3.4129684E-004
2	0	0	1	9.307599764870247E+000	-8.2572329E-001	-8.2578516E-001	-4.267639475026508E-001	3.5241534E-004
2	0	0	0	9.357799763602088E+000	-8.3074558E-001	-8.3081865E-001	-4.377780494937928E-001	3.6371418E-004
2	0	0	0	9.407799762338982E+000	-8.3574384E-001	-8.3579546E-001	-4.490043684314013E-001	3.7527582E-004
2	0	0	0	9.457799761075876E+000	-8.4074444E-001	-8.4080327E-001	-4.606611694003306E-001	3.8732542E-004
2	0	0	1	9.507899759810243E+000	-8.4575665E-001	-8.4583133E-001	-4.723378933493816E-001	3.9951821E-004
2	0	0	1	9.557999758544611E+000	-8.5076278E-001	-8.5081565E-001	-4.842994441667776E-001	4.1204956E-004
2	0	0	1	9.607999757281505E+000	-8.5576510E-001	-8.5580975E-001	-4.965127743899482E-001	4.2492046E-004
2	0	0	0	9.658099756015872E+000	-8.6077487E-001	-8.6083579E-001	-5.088092059498031E-001	4.3800118E-004
2	0	0	0	9.708199754750240E+000	-8.6578381E-001	-8.6585772E-001	-5.210973625075936E-001	4.5119619E-004
2	0	0	0	9.758199753487133E+000	-8.7078607E-001	-8.7084532E-001	-5.336001075951859E-001	4.6468317E-004
2	0	0	1	9.808299752221501E+000	-8.7579417E-001	-8.7585497E-001	-5.465181283608658E-001	4.7867061E-004
2	0	0	1	9.858399750955869E+000	-8.8080442E-001	-8.8084263E-001	-5.593252927930070E-001	4.9267756E-004
2	0	0	1	9.908399749692762E+000	-8.8580656E-001	-8.8585299E-001	-5.724323212024380E-001	5.0709088E-004
2	0	0	1	9.958399748429656E+000	-8.9080280E-001	-8.9084524E-001	-5.861350436285200E-001	5.2215561E-004
2	0	0	0	1.000859974716150E+001	-8.9582503E-001	-8.9587319E-001	-5.997245806944891E-001	5.3727720E-004
2	0	0	0	1.005859974589839E+001	-9.0082514E-001	-9.0086448E-001	-6.135017697433938E-001	5.5268197E-004
2	0	0	0	1.010859974463528E+001	-9.0582418E-001	-9.0587360E-001	-6.276966952690561E-001	5.6861388E-004
2	0	0	1	1.015879974336713E+001	-9.1084629E-001	-9.1089267E-001	-6.422146947278886E-001	5.8498868E-004
2	0	0	1	1.020879974210402E+001	-9.1584384E-001	-9.1589642E-001	-6.568441734450730E-001	6.0160120E-004
2	0	0	1	1.025879974084091E+001	-9.2084467E-001	-9.2088151E-001	-6.714726016435386E-001	6.1834668E-004
2	0	0	0	1.030889973957528E+001	-9.2585599E-001	-9.2591143E-001	-6.864114452628391E-001	6.3555618E-004
2	0	0	0	1.035899973830965E+001	-9.3086308E-001	-9.3092984E-001	-7.018833574250465E-001	6.5340416E-004
2	0	0	0	1.040899973704654E+001	-9.3586564E-001	-9.3591011E-001	-7.171498971921615E-001	6.7118782E-004
2	0	0	1	1.045909973578091E+001	-9.4087517E-001	-9.4092524E-001	-7.326351486893463E-001	6.8935490E-004
2	0	0	1	1.050919973451528E+001	-9.4588405E-001	-9.4593191E-001	-7.486695917257453E-001	7.0819043E-004
2	0	0	1	1.055919973325217E+001	-9.5088643E-001	-9.5094275E-001	-7.645728606671039E-001	7.2706502E-004
2	0	0	0	1.060929973198654E+001	-9.5589346E-001	-9.5591599E-001	-7.808208304457889E-001	7.4639911E-004
2	0	0	0	1.065939973072091E+001	-9.6090466E-001	-9.6093583E-001	-7.969210776187321E-001	7.6579000E-004
2	0	0	0	1.070939972945780E+001	-9.6590620E-001	-9.6596193E-001	-8.137693764070271E-001	7.8607025E-004
2	0	0	0	1.075939972819469E+001	-9.7090364E-001	-9.7094864E-001	-8.305124653401724E-001	8.0638495E-004
2	0	0	1	1.080959972692654E+001	-9.7592562E-001	-9.7596627E-001	-8.481322761107855E-001	8.2774850E-004
2	0	0	1	1.085959972566343E+001	-9.8092502E-001	-9.8097736E-001	-8.657889054438446E-001	8.4931933E-004
2	0	0	1	1.090959972440032E+001	-9.8592401E-001	-9.8597634E-001	-8.833022975326283E-001	8.7091519E-004
2	0	0	0	1.095979972313216E+001	-9.9094623E-001	-9.9099964E-001	-9.008424529061969E-001	8.9273456E-004
2	0	0	0	1.100979972186906E+001	-9.9594361E-001	-9.9596280E-001	-9.185351431219466E-001	9.1482681E-004
2	0	0	0	1.104249972104299E+001	-9.9921608E-001	-9.9923939E-001	-9.309291735177636E-001	9.3022111E-004
2	0	0	1	1.105039972084342E+001	-1.0000215E+000	-1.0000951E+000	-9.340333044528961E-001	9.3412213E-004