EC-Lab ASCII FILE
Nb header lines : 55                          

I-V Characterization

Run on channel : 1 (SN 6514)
User : 
CE vs. WE compliance from -10 V to 10 V
Electrode connection : standard
Ewe ctrl range : min = -1.10 V, max = 0.20 V
Safety Limits :
	Do not start on E overload
Acquisition started on : 06/15/2016 18:13:49
Saved on :
	File : B125-G54-UN-G-D1GB-C7 BW 100mVs dark_C01.mpr
	Directory : E:\EC-Lab measurements\B125-G54-UN-G-D1GB\
	Host : 10.0.2.15
Device : VSP (SN 0295)
Address : USB
EC-Lab for windows v11.01 (software)
Internet server v11.00 (firmware)
Command interpretor v11.00 (firmware)
Electrode material : 
Initial state : 
Electrolyte : 
Comments : 
Electrode surface area : 0.001 cm²
Characteristic mass : 0.001 g
Equivalent Weight : 0.000 g/eq.
Density : 0.000 g/cm3
tR (h:m:s)          0:00:0.0000         
dER/dt (mV/h)       0.0                 
dER (mV)            0                   
dtR (s)             0.0000              
dE/dt               100.000             
dE/dt unit          mV/s                
Ei (V)              -1.000              
vs.                 Ref                 
EL (V)              0.100               
vs.                 Ref                 
record              <I>                 
dI                  0.000               
unit dI             µA                  
tI (s)              0.1000              
step percent        100                 
N                   100                 
E range min (V)     -1.100              
E range max (V)     0.200               
I Range             Auto                
I Range min         Unset               
I Range max         Unset               
I Range init        Unset               
Bandwidth           5                   

mode	ox/red	error	control changes	time/s	control/V	Ewe/V	<I>/mA	P/W
2	1	0	1	8.039999796892516E-002	-9.9701774E-001	-9.9707770E-001	-7.812495902180672E-002	7.7896657E-005
2	1	0	0	1.057999973272672E-001	-9.9448204E-001	-9.9449503E-001	-8.046118281626635E-002	8.0018246E-005
2	1	0	0	1.557999960641610E-001	-9.8948532E-001	-9.8953211E-001	-8.383856289642067E-002	8.2960949E-005
2	1	0	0	2.057999948010547E-001	-9.8448354E-001	-9.8454392E-001	-8.602678080847248E-002	8.4697145E-005
2	1	0	1	2.558999935354223E-001	-9.7947323E-001	-9.7951663E-001	-8.745797856769011E-002	8.5666543E-005
2	1	0	1	3.059999922697898E-001	-9.7446513E-001	-9.7449905E-001	-8.830407766569026E-002	8.6052241E-005
2	1	0	1	3.559999910066836E-001	-9.6946311E-001	-9.6950817E-001	-8.873437104533854E-002	8.6028696E-005
2	1	0	0	4.060999897410511E-001	-9.6445435E-001	-9.6450430E-001	-8.884463246971874E-002	8.5691034E-005
2	1	0	0	4.561999884754187E-001	-9.5944411E-001	-9.5946205E-001	-8.863458289711179E-002	8.5041516E-005
2	1	0	0	5.061999872123124E-001	-9.5444167E-001	-9.5446497E-001	-8.819188503845599E-002	8.4176063E-005
2	1	0	1	5.562999859466800E-001	-9.4943595E-001	-9.4949418E-001	-8.753718357344881E-002	8.3116043E-005
2	1	0	1	6.063999846810475E-001	-9.4442326E-001	-9.4447625E-001	-8.667224631093799E-002	8.1859878E-005
2	1	0	1	6.563999834179413E-001	-9.3942344E-001	-9.3945265E-001	-8.570927641184900E-002	8.0519807E-005
2	1	0	1	7.063999821548350E-001	-9.3442500E-001	-9.3447113E-001	-8.458378390756005E-002	7.9041107E-005
2	1	0	0	7.565999808866763E-001	-9.2940253E-001	-9.2946118E-001	-8.334198226766909E-002	7.7463141E-005
2	1	0	0	8.065999796235701E-001	-9.2440414E-001	-9.2444789E-001	-8.201477255606138E-002	7.5818381E-005
2	1	0	0	8.565999783604639E-001	-9.1940427E-001	-9.1944587E-001	-8.052432502314552E-002	7.4037758E-005
2	1	0	1	9.066999770948314E-001	-9.1439182E-001	-9.1443580E-001	-7.898237716305745E-002	7.2224313E-005
2	1	0	1	9.567999758291990E-001	-9.0938574E-001	-9.0944916E-001	-7.743453796560418E-002	7.0422779E-005
2	1	0	1	1.006799974566093E+000	-9.0438330E-001	-9.0443188E-001	-7.581713784078967E-002	6.8571433E-005
2	1	0	0	1.056899973300460E+000	-8.9937329E-001	-8.9941871E-001	-7.418940040558464E-002	6.6727334E-005
2	1	0	0	1.106999972034828E+000	-8.9436448E-001	-8.9440566E-001	-7.251732893411889E-002	6.4859909E-005
2	1	0	0	1.156999970771722E+000	-8.8936234E-001	-8.8939553E-001	-7.080871101139508E-002	6.2976949E-005
2	1	0	1	1.207099969506089E+000	-8.8435465E-001	-8.8440186E-001	-6.915412744896832E-002	6.1160041E-005
2	1	0	1	1.257199968240457E+000	-8.7934387E-001	-8.7938321E-001	-6.748411793726951E-002	5.9344398E-005
2	1	0	1	1.307199966977350E+000	-8.7434238E-001	-8.7440199E-001	-6.586124635638557E-002	5.7589205E-005
2	1	0	1	1.357199965714244E+000	-8.6934537E-001	-8.6941612E-001	-6.423334841330680E-002	5.5845507E-005
2	1	0	0	1.407399964446086E+000	-8.6432290E-001	-8.6437893E-001	-6.265888286150184E-002	5.4161017E-005
2	1	0	0	1.457399963182979E+000	-8.5932308E-001	-8.5938269E-001	-6.109953948760971E-002	5.2507887E-005
2	1	0	0	1.507399961919873E+000	-8.5432488E-001	-8.5437292E-001	-5.958533992730078E-002	5.0908100E-005
2	1	0	1	1.557599960651714E+000	-8.4930193E-001	-8.4936690E-001	-5.809261885924377E-002	4.9341947E-005
2	1	0	1	1.607599959388608E+000	-8.4430480E-001	-8.4435666E-001	-5.664457323183908E-002	4.7828224E-005
2	1	0	1	1.657599958125502E+000	-8.3930373E-001	-8.3935887E-001	-5.520494575920459E-002	4.6336761E-005
2	1	0	0	1.707699956859869E+000	-8.3429205E-001	-8.3435470E-001	-5.381516560694211E-002	4.4900935E-005
2	1	0	0	1.757799955594237E+000	-8.2928479E-001	-8.2935214E-001	-5.245747416372388E-002	4.3505719E-005
2	1	0	0	1.807799954331131E+000	-8.2428300E-001	-8.2434982E-001	-5.111802733511843E-002	4.2139138E-005
2	1	0	1	1.857899953065498E+000	-8.1927323E-001	-8.1932694E-001	-4.979563612408666E-002	4.0798906E-005
2	1	0	1	1.907999951799866E+000	-8.1426448E-001	-8.1432021E-001	-4.859335968694145E-002	3.9570554E-005
2	1	0	1	1.957999950536760E+000	-8.0926222E-001	-8.0931550E-001	-4.734015549960191E-002	3.8313123E-005
2	1	0	0	2.008099949271127E+000	-8.0425471E-001	-8.0428845E-001	-4.615472624503369E-002	3.7121714E-005
2	1	0	0	2.058199948005495E+000	-7.9924345E-001	-7.9930198E-001	-4.497480972535584E-002	3.5948455E-005
2	1	0	0	2.108199946742388E+000	-7.9424208E-001	-7.9430646E-001	-4.382176099242741E-002	3.4807908E-005
2	1	0	0	2.158199945479282E+000	-7.8924501E-001	-7.8930032E-001	-4.270979345114009E-002	3.3710854E-005
2	1	0	1	2.208399944211124E+000	-7.8422248E-001	-7.8426403E-001	-4.161580737862569E-002	3.2637781E-005
2	1	0	1	2.258399942948017E+000	-7.7922368E-001	-7.7926022E-001	-4.057669906732320E-002	3.1619806E-005
2	1	0	1	2.308399941684911E+000	-7.7422422E-001	-7.7426046E-001	-3.949372519870964E-002	3.0578431E-005
2	1	0	0	2.358599940416752E+000	-7.6920170E-001	-7.6925844E-001	-3.846186319912248E-002	2.9587112E-005
2	1	0	0	2.408599939153646E+000	-7.6420462E-001	-7.6424223E-001	-3.748175152767108E-002	2.8645138E-005
2	1	0	0	2.458599937890540E+000	-7.5920343E-001	-7.5925440E-001	-3.652163698938826E-002	2.7729213E-005
2	1	0	1	2.508699936624907E+000	-7.5419205E-001	-7.5421804E-001	-3.555523530443494E-002	2.6816400E-005
2	1	0	1	2.558799935359275E+000	-7.4918509E-001	-7.4922562E-001	-3.460523596678111E-002	2.5927129E-005
2	1	0	1	2.608799934096169E+000	-7.4418253E-001	-7.4420661E-001	-3.368237693107273E-002	2.5066647E-005
2	1	0	0	2.658899932830536E+000	-7.3917359E-001	-7.3921275E-001	-3.276767837219885E-002	2.4222285E-005
2	1	0	0	2.708999931564904E+000	-7.3416376E-001	-7.3418742E-001	-3.188576103426949E-002	2.3410124E-005
2	1	0	0	2.758999930301798E+000	-7.2916180E-001	-7.2919166E-001	-3.100823451681453E-002	2.2610946E-005
2	1	0	1	2.809099929036165E+000	-7.2415465E-001	-7.2417819E-001	-3.017109131488843E-002	2.1849246E-005
2	1	0	1	2.859199927770533E+000	-7.1914309E-001	-7.1916854E-001	-2.934378945514763E-002	2.1103131E-005
2	1	0	1	2.909199926507426E+000	-7.1414250E-001	-7.1417928E-001	-2.852864973587541E-002	2.0374571E-005
2	1	0	1	2.959199925244320E+000	-7.0914459E-001	-7.0918304E-001	-2.774983973500531E-002	1.9679715E-005
2	1	0	0	3.009399923976162E+000	-7.0412219E-001	-7.0414543E-001	-2.698199522814815E-002	1.8999248E-005
2	1	0	0	3.059399922713055E+000	-6.9912356E-001	-6.9915366E-001	-2.620234780729341E-002	1.8319468E-005
2	1	0	0	3.109399921449949E+000	-6.9412351E-001	-6.9415194E-001	-2.545734489117404E-002	1.7671266E-005
2	1	0	1	3.159599920181790E+000	-6.8910110E-001	-6.8914247E-001	-2.473206974823364E-002	1.7043920E-005
2	1	0	1	3.209599918918684E+000	-6.8410498E-001	-6.8413830E-001	-2.400861238294677E-002	1.6425211E-005
2	1	0	1	3.259599917655578E+000	-6.7910290E-001	-6.7914253E-001	-2.332544558450067E-002	1.5841302E-005
2	1	0	0	3.309699916389945E+000	-6.7409253E-001	-6.7412460E-001	-2.266384397357268E-002	1.5278254E-005
2	1	0	0	3.359799915124313E+000	-6.6908419E-001	-6.6911942E-001	-2.198247534629233E-002	1.4708901E-005
2	1	0	0	3.409799913861207E+000	-6.6408187E-001	-6.6411483E-001	-2.133689175150377E-002	1.4170147E-005
2	1	0	1	3.459899912595574E+000	-6.5907335E-001	-6.5909773E-001	-2.072175763589293E-002	1.3657664E-005
2	1	0	1	3.509999911329942E+000	-6.5406352E-001	-6.5410048E-001	-2.010617113945146E-002	1.3151456E-005
2	1	0	1	3.559999910066836E+000	-6.4906120E-001	-6.4911783E-001	-1.949876783761578E-002	1.2656998E-005
2	1	0	0	3.610099908801203E+000	-6.4405495E-001	-6.4408565E-001	-1.891296539009749E-002	1.2181569E-005
2	1	0	0	3.660199907535571E+000	-6.3904268E-001	-6.3909668E-001	-1.833868956724954E-002	1.1720195E-005
2	1	0	0	3.710199906272464E+000	-6.3404244E-001	-6.3411528E-001	-1.780290745798915E-002	1.1289096E-005
2	1	0	0	3.760199905009358E+000	-6.2904376E-001	-6.2912631E-001	-1.722656766986108E-002	1.0837687E-005
2	1	0	1	3.810399903741200E+000	-6.2402147E-001	-6.2409443E-001	-1.670145846165547E-002	1.0423287E-005
2	1	0	1	3.860399902478093E+000	-6.1902386E-001	-6.1910224E-001	-1.618508950150468E-002	1.0020225E-005
2	1	0	1	3.910399901214987E+000	-6.1402321E-001	-6.1410427E-001	-1.567951975103779E-002	9.6288604E-006
2	1	0	0	3.960499899949355E+000	-6.0901147E-001	-6.0907698E-001	-1.518581793468941E-002	9.2493319E-006
2	1	0	0	4.010599898683722E+000	-6.0400480E-001	-6.0405999E-001	-1.470355713845284E-002	8.8818306E-006
2	1	0	0	4.060599897420616E+000	-5.9900218E-001	-5.9905761E-001	-1.423555660605430E-002	8.5279189E-006
2	1	0	1	4.110699896154983E+000	-5.9399223E-001	-5.9406090E-001	-1.377473571446915E-002	8.1830322E-006
2	1	0	1	4.160799894889351E+000	-5.8898419E-001	-5.8905256E-001	-1.334685561085409E-002	7.8619996E-006
2	1	0	1	4.210799893626245E+000	-5.8398151E-001	-5.8403933E-001	-1.290946317352271E-002	7.5396342E-006
2	1	0	0	4.260899892360612E+000	-5.7897395E-001	-5.7903492E-001	-1.251559822268308E-002	7.2469684E-006
2	1	0	0	4.310999891094980E+000	-5.7396317E-001	-5.7404995E-001	-1.209931390094782E-002	6.9456105E-006
2	1	0	0	4.360999889831874E+000	-5.6896132E-001	-5.6902629E-001	-1.169035992304929E-002	6.6521220E-006
2	1	0	0	4.410999888568767E+000	-5.6396431E-001	-5.6402272E-001	-1.129500178327066E-002	6.3706375E-006
2	1	0	1	4.461199887300609E+000	-5.5894214E-001	-5.5901521E-001	-1.090302466332826E-002	6.0949565E-006
2	1	0	1	4.511199886037502E+000	-5.5394256E-001	-5.5402219E-001	-1.053596564716195E-002	5.8371588E-006
2	1	0	1	4.561199884774396E+000	-5.4894394E-001	-5.4900223E-001	-1.016803405964684E-002	5.5822734E-006
2	1	0	0	4.611399883506238E+000	-5.4392171E-001	-5.4398417E-001	-9.828902767064036E-003	5.3467675E-006
2	1	0	0	4.661399882243131E+000	-5.3892392E-001	-5.3898126E-001	-9.488153092849450E-003	5.1139368E-006
2	1	0	0	4.711399880980025E+000	-5.3392267E-001	-5.3398168E-001	-9.138001082920622E-003	4.8795250E-006
2	1	0	1	4.761499879714393E+000	-5.2891129E-001	-5.2897781E-001	-8.822057255536711E-003	4.6666723E-006
2	1	0	1	4.811599878448760E+000	-5.2390456E-001	-5.2396542E-001	-8.522828910127844E-003	4.4656676E-006
2	1	0	1	4.861599877185654E+000	-5.1890206E-001	-5.1897323E-001	-8.230781406746615E-003	4.2715551E-006
2	1	0	0	4.911699875920021E+000	-5.1389301E-001	-5.1395047E-001	-7.934433153832826E-003	4.0779055E-006
2	1	0	0	4.961799874654389E+000	-5.0888366E-001	-5.0893772E-001	-7.654419717052156E-003	3.8956227E-006
2	1	0	0	5.011799873391283E+000	-5.0388110E-001	-5.0393695E-001	-7.391179764334163E-003	3.7246887E-006
2	1	0	1	5.061899872125650E+000	-4.9887377E-001	-4.9893042E-001	-7.096929296017046E-003	3.5408739E-006
2	1	0	1	5.111999870860018E+000	-4.9386290E-001	-4.9391150E-001	-6.845470237815246E-003	3.3810566E-006
2	1	0	1	5.161999869596912E+000	-4.8886135E-001	-4.8890910E-001	-6.587855391072706E-003	3.2208625E-006
2	1	0	1	5.211999868333805E+000	-4.8386440E-001	-4.8391351E-001	-6.338500572771646E-003	3.0672861E-006
2	1	0	0	5.262199867065647E+000	-4.7884208E-001	-4.7888541E-001	-6.093429602986991E-003	2.9180546E-006
2	1	0	0	5.312199865802540E+000	-4.7384280E-001	-4.7387898E-001	-5.858639796300566E-003	2.7762862E-006
2	1	0	0	5.362199864539434E+000	-4.6884316E-001	-4.6888050E-001	-5.642635880058200E-003	2.6457219E-006
2	1	0	1	5.412399863271276E+000	-4.6382102E-001	-4.6386960E-001	-5.431254391912386E-003	2.5193938E-006
2	1	0	1	5.462399862008169E+000	-4.5882407E-001	-4.5887619E-001	-5.215445462400332E-003	2.3932437E-006
2	1	0	1	5.512399860745063E+000	-4.5382258E-001	-4.5386589E-001	-5.009852903444779E-003	2.2738013E-006
2	1	0	0	5.562499859479431E+000	-4.4881183E-001	-4.4884190E-001	-4.818203376908142E-003	2.1626115E-006
2	1	0	0	5.627799857829814E+000	-4.4228148E-001	-4.4233009E-001	-4.566706749148157E-003	2.0199918E-006
2	1	0	1	5.693199856177671E+000	-4.3574390E-001	-4.3576917E-001	-4.324023706800156E-003	1.8842762E-006
2	1	0	1	5.743199854914565E+000	-4.3074182E-001	-4.3076158E-001	-4.159927926359060E-003	1.7919371E-006
2	1	0	0	5.793299853648932E+000	-4.2573270E-001	-4.2576319E-001	-3.980386561800985E-003	1.6947021E-006
2	1	0	0	5.843399852383300E+000	-4.2072335E-001	-4.2075437E-001	-3.822495865116363E-003	1.6083319E-006
2	1	0	0	5.893399851120193E+000	-4.1572091E-001	-4.1574845E-001	-3.666229634273904E-003	1.5242293E-006
2	1	0	1	5.943499849854561E+000	-4.1071415E-001	-4.1075706E-001	-3.518455597168291E-003	1.4452305E-006
2	1	0	1	5.993599848588929E+000	-4.0570229E-001	-4.0573066E-001	-3.375962837257195E-003	1.3697316E-006
2	1	0	1	6.043599847325822E+000	-4.0070161E-001	-4.0075448E-001	-3.232128822224081E-003	1.2952901E-006
2	1	0	1	6.093599846062716E+000	-3.9570382E-001	-3.9574295E-001	-3.090682061854214E-003	1.2231156E-006
2	1	0	0	6.143799844794557E+000	-3.9068145E-001	-3.9071470E-001	-2.949413560298045E-003	1.1523792E-006
2	1	0	0	6.193799843531451E+000	-3.8568309E-001	-3.8571283E-001	-2.819882730817527E-003	1.0876649E-006
2	1	0	0	6.243799842268345E+000	-3.8068295E-001	-3.8071689E-001	-2.698260423362922E-003	1.0272734E-006
2	1	0	1	6.293999841000186E+000	-3.7566078E-001	-3.7569892E-001	-2.578160657046767E-003	9.6861220E-007
2	1	0	1	6.343999839737080E+000	-3.7066412E-001	-3.7068802E-001	-2.469927220033058E-003	9.1557246E-007
2	1	0	1	6.393999838473974E+000	-3.6566228E-001	-3.6570171E-001	-2.351651883662714E-003	8.6000313E-007
2	1	0	0	6.444099837208341E+000	-3.6065152E-001	-3.6069945E-001	-2.237955147832621E-003	8.0722918E-007
2	1	0	0	6.494199835942709E+000	-3.5564387E-001	-3.5568485E-001	-2.131946430065486E-003	7.5830104E-007
2	1	0	0	6.544199834679603E+000	-3.5064137E-001	-3.5066795E-001	-2.022431893981023E-003	7.0920203E-007
2	1	0	1	6.594299833413970E+000	-3.4563291E-001	-3.4567100E-001	-1.926099190452487E-003	6.6579662E-007
2	1	0	1	6.644399832148338E+000	-3.4062278E-001	-3.4064856E-001	-1.833015416013058E-003	6.2441404E-007
2	1	0	1	6.694399830885232E+000	-3.3562058E-001	-3.3563551E-001	-1.739302518772860E-003	5.8377168E-007
2	1	0	0	6.744499829619599E+000	-3.3061412E-001	-3.3063009E-001	-1.653503758850792E-003	5.4669812E-007
2	1	0	0	6.794599828353967E+000	-3.2560199E-001	-3.2562798E-001	-1.572108645186178E-003	5.1192256E-007
2	1	0	0	6.844599827090860E+000	-3.2060185E-001	-3.2064414E-001	-1.498327115644812E-003	4.8042983E-007
2	1	0	0	6.894599825827754E+000	-3.1560329E-001	-3.1562710E-001	-1.420473147174021E-003	4.4833982E-007
2	1	0	1	6.944799824559595E+000	-3.1058103E-001	-3.1062675E-001	-1.342697242297214E-003	4.1707767E-007
2	1	0	1	6.994799823296489E+000	-3.0558306E-001	-3.0562884E-001	-1.271792849002043E-003	3.8869658E-007
2	1	0	1	7.044799822033383E+000	-3.0058250E-001	-3.0063003E-001	-1.205206415218724E-003	3.6232123E-007
2	1	0	0	7.094899820767751E+000	-2.9557034E-001	-2.9559690E-001	-1.135185455000381E-003	3.3555730E-007
2	1	0	0	7.144999819502118E+000	-2.9056421E-001	-2.9058072E-001	-1.063505851337753E-003	3.0903431E-007
2	1	0	0	7.194999818239012E+000	-2.8556171E-001	-2.8559202E-001	-1.014998511044600E-003	2.8987549E-007
2	1	0	1	7.245099816973379E+000	-2.8055194E-001	-2.8058881E-001	-9.456902791093891E-004	2.6535011E-007
2	1	0	1	7.295199815707747E+000	-2.7554336E-001	-2.7557555E-001	-8.944165820166730E-004	2.4647935E-007
2	1	0	1	7.345199814444641E+000	-2.7054104E-001	-2.7057227E-001	-8.364987853900999E-004	2.2633338E-007
2	1	0	0	7.395299813179008E+000	-2.6553300E-001	-2.6557004E-001	-7.814026334441941E-004	2.0751713E-007
2	1	0	0	7.445399811913376E+000	-2.6052257E-001	-2.6056257E-001	-7.283848931481304E-004	1.8978984E-007
2	1	0	0	7.495399810650270E+000	-2.5552070E-001	-2.5555813E-001	-6.916461514103970E-004	1.7675580E-007
2	1	0	0	7.545399809387163E+000	-2.5052390E-001	-2.5055414E-001	-6.479305159426199E-004	1.6234168E-007
2	1	0	1	7.595599808119005E+000	-2.4550155E-001	-2.4556133E-001	-6.012870141993811E-004	1.4765284E-007
2	1	0	1	7.645599806855898E+000	-2.4050207E-001	-2.4056682E-001	-5.623469617122611E-004	1.3528202E-007
2	1	0	1	7.695599805592792E+000	-2.3550311E-001	-2.3555970E-001	-5.248945229786410E-004	1.2364400E-007
2	1	0	0	7.745799804324633E+000	-2.3048081E-001	-2.3054400E-001	-4.855330764413010E-004	1.1193674E-007
2	1	0	0	7.795799803061527E+000	-2.2548336E-001	-2.2554214E-001	-4.506967537050086E-004	1.0165111E-007
2	1	0	0	7.845799801798421E+000	-2.2048216E-001	-2.2053567E-001	-4.127736493465791E-004	9.1031310E-008
2	1	0	1	7.895899800532789E+000	-2.1547091E-001	-2.1552689E-001	-3.781589759922523E-004	8.1503430E-008
2	1	0	1	7.945999799267156E+000	-2.1046381E-001	-2.1053669E-001	-3.431656876217359E-004	7.2248966E-008
2	1	0	1	7.995999798004050E+000	-2.0546134E-001	-2.0552315E-001	-3.117641041484617E-004	6.4074740E-008
2	1	0	0	8.046099796738417E+000	-2.0045190E-001	-2.0050180E-001	-2.789818680699438E-004	5.5936365E-008
2	1	0	0	8.096199795472785E+000	-1.9544302E-001	-1.9550131E-001	-2.505026893764514E-004	4.8973604E-008
2	1	0	0	8.146199794209679E+000	-1.9044052E-001	-1.9050075E-001	-2.257751059229346E-004	4.3010328E-008
2	1	0	1	8.196299792944046E+000	-1.8543339E-001	-1.8549293E-001	-1.887134068069502E-004	3.5005002E-008
2	1	0	1	8.246399791678414E+000	-1.8042208E-001	-1.8046564E-001	-1.659862550266429E-004	2.9954816E-008
2	1	0	1	8.296399790415308E+000	-1.7542075E-001	-1.7547348E-001	-1.404941685193501E-004	2.4653001E-008
2	1	0	1	8.346399789152201E+000	-1.7042339E-001	-1.7046639E-001	-1.168556160057207E-004	1.9919955E-008
2	1	0	0	8.396599787884043E+000	-1.6540125E-001	-1.6544889E-001	-9.637557727496231E-005	1.5945233E-008
2	1	0	0	8.446599786620936E+000	-1.6040209E-001	-1.6043925E-001	-7.592361252534304E-005	1.2181128E-008
2	1	0	0	8.496599785357830E+000	-1.5540269E-001	-1.5544380E-001	-4.919680793429937E-005	7.6473388E-009
2	1	0	1	8.546799784089671E+000	-1.5038037E-001	-1.5042207E-001	-2.242494408553935E-005	3.3732064E-009
2	1	0	1	8.596799782826565E+000	-1.4538343E-001	-1.4541914E-001	-2.841552835586854E-006	4.1321616E-010
2	1	0	1	8.646799781563459E+000	-1.4038178E-001	-1.4039804E-001	1.595016655179759E-005	2.2393720E-009
2	1	0	0	8.696899780297827E+000	-1.3537093E-001	-1.3537629E-001	3.435786819137878E-005	4.6512407E-009
2	1	0	0	8.746999779032194E+000	-1.3036354E-001	-1.3037148E-001	5.225221624125106E-005	6.8121988E-009
2	1	0	0	8.796999777769088E+000	-1.2536101E-001	-1.2538378E-001	6.990465684831015E-005	8.7649097E-009
2	1	0	1	8.847099776503455E+000	-1.2035228E-001	-1.2036694E-001	8.849009984192627E-005	1.0651283E-008
2	1	0	1	8.897199775237823E+000	-1.1534265E-001	-1.1534917E-001	1.047231015614458E-004	1.2079723E-008
2	1	0	1	8.947199773974717E+000	-1.1034004E-001	-1.1035445E-001	1.211598903687028E-004	1.3370532E-008
2	1	0	0	8.997299772709084E+000	-1.0533348E-001	-1.0534575E-001	1.359232257483146E-004	1.4318934E-008
2	1	0	0	9.047399771443452E+000	-1.0032180E-001	-1.0033035E-001	1.516140283064245E-004	1.5211489E-008
2	1	0	0	9.097399770180346E+000	-9.5320947E-002	-9.5342338E-002	1.665157275759512E-004	1.5875999E-008
2	1	0	0	9.147399768917239E+000	-9.0323254E-002	-9.0335853E-002	1.817040099088012E-004	1.6414386E-008
2	1	0	1	9.197599767649081E+000	-8.5300848E-002	-8.5327990E-002	1.947833973217200E-004	1.6620476E-008
2	1	0	1	9.247599766385974E+000	-8.0302209E-002	-8.0320686E-002	2.073439983172520E-004	1.6654012E-008
2	1	0	1	9.297599765122868E+000	-7.5302288E-002	-7.5325452E-002	2.212910323159132E-004	1.6668848E-008
2	1	0	0	9.347799763854709E+000	-7.0279874E-002	-7.0305809E-002	2.354078391031949E-004	1.6550539E-008
2	1	0	0	9.397799762591603E+000	-6.5283507E-002	-6.5308206E-002	2.487072561302515E-004	1.6242625E-008
2	1	0	0	9.447799761328497E+000	-6.0281552E-002	-6.0301032E-002	2.599272678865828E-004	1.5673882E-008
2	1	0	1	9.497899760062865E+000	-5.5271056E-002	-5.5296127E-002	2.746103572089652E-004	1.5184890E-008
2	1	0	1	9.547999758797232E+000	-5.0262991E-002	-5.0287582E-002	2.876118187381625E-004	1.4463303E-008
2	1	0	1	9.597999757534126E+000	-4.5260604E-002	-4.5277625E-002	2.993952670243045E-004	1.3555907E-008
2	1	0	0	9.648099756268493E+000	-4.0252347E-002	-4.0270112E-002	3.114878702444417E-004	1.2543651E-008
2	1	0	0	9.698199755002861E+000	-3.5242274E-002	-3.5253476E-002	3.246528947974245E-004	1.1445143E-008
2	1	0	0	9.748199753739755E+000	-3.0239863E-002	-3.0244719E-002	3.374382612402107E-004	1.0205725E-008
2	1	0	1	9.798299752474122E+000	-2.5233636E-002	-2.5243161E-002	3.497637432260409E-004	8.8291428E-009
2	1	0	1	9.848399751208490E+000	-2.0221334E-002	-2.0230042E-002	3.631488149695109E-004	7.3465158E-009
2	1	0	1	9.898399749945384E+000	-1.5221150E-002	-1.5242231E-002	3.758238945733659E-004	5.7283946E-009
2	1	0	1	9.948399748682277E+000	-1.0222780E-002	-1.0258458E-002	3.882693282003212E-004	3.9830446E-009
2	1	0	0	9.998599747414119E+000	-5.2003912E-003	-5.2407682E-003	4.005125955425693E-004	2.0989936E-009
2	1	0	0	1.004859974615101E+001	-2.0242837E-004	-2.3100608E-004	4.130333125913262E-004	9.5413205E-011
2	1	0	0	1.009859974488791E+001	4.7979411E-003	4.7625285E-003	4.263705202620215E-004	2.0306017E-009
2	1	0	1	1.014869974362227E+001	9.8100137E-003	9.7806118E-003	4.397976244136835E-004	4.3014898E-009
2	1	0	1	1.019879974235664E+001	1.4816433E-002	1.4792981E-002	4.527369064631030E-004	6.6973285E-009
2	1	0	1	1.024879974109354E+001	1.9818822E-002	1.9802526E-002	4.663176862601077E-004	9.2342676E-009
2	1	0	0	1.029889973982790E+001	2.4828671E-002	2.4806457E-002	4.805834185170324E-004	1.1921572E-008
2	1	0	0	1.034899973856227E+001	2.9837301E-002	2.9822158E-002	4.944835654418257E-004	1.4746567E-008
2	1	0	0	1.039899973729916E+001	3.4839470E-002	3.4814071E-002	5.089296695692967E-004	1.7717914E-008
2	1	0	1	1.044909973603353E+001	3.9847329E-002	3.9834987E-002	5.233705287333362E-004	2.0848459E-008
2	1	0	1	1.049919973476790E+001	4.4858001E-002	4.4827931E-002	5.391684878843579E-004	2.4169807E-008
2	1	0	1	1.054919973350479E+001	4.9859758E-002	4.9836095E-002	5.552521969623553E-004	2.7671602E-008
2	1	0	1	1.059919973224169E+001	5.4856502E-002	5.4836042E-002	5.688283107876480E-004	3.1192293E-008
2	1	0	0	1.064939973097353E+001	5.9878882E-002	5.9860408E-002	5.849268756899255E-004	3.5013962E-008
2	1	0	0	1.069939972971042E+001	6.4878404E-002	6.4868972E-002	6.013781519627931E-004	3.9010782E-008
2	1	0	0	1.074939972844732E+001	6.9877192E-002	6.9859073E-002	6.176669604106098E-004	4.3149640E-008
2	1	0	1	1.079959972717916E+001	7.4899718E-002	7.4872442E-002	6.361638212967306E-004	4.7631140E-008
2	1	0	1	1.084959972591605E+001	7.9897039E-002	7.9887003E-002	6.550288980630295E-004	5.2328296E-008
2	1	0	1	1.089959972465294E+001	8.4898032E-002	8.4880732E-002	6.737616308813508E-004	5.7189382E-008
2	1	0	0	1.094969972338731E+001	8.9909412E-002	8.9896858E-002	6.926694827941874E-004	6.2268811E-008
2	1	0	0	1.099979972212168E+001	9.4916508E-002	9.4904259E-002	7.104675796000383E-004	6.7426399E-008
2	1	0	0	1.103749972116930E+001	9.8690502E-002	9.8679371E-002	7.260333666175411E-004	7.1644514E-008
2	1	0	0	1.105059972083836E+001	9.9997252E-002	1.0003239E-001	7.386844760427867E-004	7.3892373E-008