EC-Lab ASCII FILE
Nb header lines : 55                          

I-V Characterization

Run on channel : 1 (SN 6514)
User : 
CE vs. WE compliance from -10 V to 10 V
Electrode connection : standard
Ewe ctrl range : min = -1.10 V, max = 0.20 V
Safety Limits :
	Do not start on E overload
Acquisition started on : 06/15/2016 19:33:08
Saved on :
	File : B125-G54-UN-G-D1GB-C11 FW 10mVs dark_C01.mpr
	Directory : E:\EC-Lab measurements\B125-G54-UN-G-D1GB\
	Host : 10.0.2.15
Device : VSP (SN 0295)
Address : USB
EC-Lab for windows v11.01 (software)
Internet server v11.00 (firmware)
Command interpretor v11.00 (firmware)
Electrode material : 
Initial state : 
Electrolyte : 
Comments : 
Electrode surface area : 0.001 cm²
Characteristic mass : 0.001 g
Equivalent Weight : 0.000 g/eq.
Density : 0.000 g/cm3
tR (h:m:s)          0:00:0.0000         
dER/dt (mV/h)       0.0                 
dER (mV)            0                   
dtR (s)             0.0000              
dE/dt               10.000              
dE/dt unit          mV/s                
Ei (V)              0.100               
vs.                 Ref                 
EL (V)              -1.000              
vs.                 Ref                 
record              <I>                 
dI                  0.000               
unit dI             µA                  
tI (s)              0.1000              
step percent        100                 
N                   100                 
E range min (V)     -1.100              
E range max (V)     0.200               
I Range             Auto                
I Range min         Unset               
I Range max         Unset               
I Range init        Unset               
Bandwidth           5                   

mode	ox/red	error	control changes	time/s	control/V	Ewe/V	<I>/mA	P/W
2	0	0	0	8.499999785271939E-002	9.9696882E-002	9.9593133E-002	1.513346727006135E-003	1.5071895E-007
2	0	0	1	3.552999910243670E-001	9.6993022E-002	9.6974954E-002	1.058478658070999E-003	1.0264592E-007
2	0	0	1	8.733999779360602E-001	9.1812029E-002	9.1787912E-002	7.502721934716499E-004	6.8865916E-008
2	0	0	0	1.373999965289840E+000	8.6806051E-002	8.6781666E-002	6.431806686937602E-004	5.5816290E-008
2	0	0	1	1.874599952643621E+000	8.1800044E-002	8.1784345E-002	5.737108408549471E-004	4.6920565E-008
2	0	0	0	2.375199939997401E+000	7.6794043E-002	7.6784633E-002	5.205315460729719E-004	3.9968825E-008
2	0	0	0	2.875999927346129E+000	7.1786121E-002	7.1769528E-002	4.722337917982414E-004	3.3891997E-008
2	0	0	1	3.376599914699909E+000	6.6780135E-002	6.6755921E-002	4.291210637181481E-004	2.8646372E-008
2	0	0	0	3.877199902053690E+000	6.1774112E-002	6.1740071E-002	3.883539353872496E-004	2.3977000E-008
2	0	0	1	4.377799889407470E+000	5.6768093E-002	5.6745190E-002	3.520139633229214E-004	1.9975099E-008
2	0	0	0	4.878399876761250E+000	5.1762115E-002	5.1735844E-002	3.121108828440999E-004	1.6147320E-008
2	0	0	1	5.378999864115031E+000	4.6756130E-002	4.6734627E-002	2.758482770700166E-004	1.2891666E-008
2	0	0	0	5.879599851468811E+000	4.1750122E-002	4.1707329E-002	2.417967888087016E-004	1.0084698E-008
2	0	0	1	6.380199838822591E+000	3.6744118E-002	3.6724001E-002	2.061758820228036E-004	7.5716029E-009
2	0	0	0	6.880899826173845E+000	3.1737167E-002	3.1704761E-002	1.725552939334670E-004	5.4708242E-009
2	0	0	0	7.381599813525099E+000	2.6730217E-002	2.6710270E-002	1.419301998307286E-004	3.7909937E-009
2	0	0	1	7.882199800878880E+000	2.1724198E-002	2.1710832E-002	1.097789739591595E-004	2.3833928E-009
2	0	0	0	8.382799788232660E+000	1.6718226E-002	1.6705157E-002	7.919466092502899E-005	1.3229593E-009
2	0	0	1	8.883399775586440E+000	1.1712189E-002	1.1690873E-002	4.898843336403941E-005	5.7271754E-010
2	0	0	0	9.383999762940221E+000	6.7062140E-003	6.6671139E-003	1.825443596104980E-005	1.2170440E-010
2	0	0	1	9.884599750294001E+000	1.6997777E-003	1.6701448E-003	-1.395893427513136E-005	2.3313441E-011
2	0	0	0	1.038519973764778E+001	-3.3057677E-003	-3.3424587E-003	-4.495718428555295E-005	1.5026753E-010
2	0	0	1	1.088579972500156E+001	-8.3118044E-003	-8.3530983E-003	-7.572598788901604E-005	6.3254663E-010
2	0	0	0	1.138649971235282E+001	-1.3318791E-002	-1.3353710E-002	-1.064391461256373E-004	1.4213575E-009
2	0	0	0	1.188719969970407E+001	-1.8325802E-002	-1.8349715E-002	-1.408234027126857E-004	2.5840692E-009
2	0	0	1	1.238779968705785E+001	-2.3331800E-002	-2.3357715E-002	-1.728566109381114E-004	4.0375356E-009
2	0	0	0	1.288839967441163E+001	-2.8337793E-002	-2.8366016E-002	-2.105384584446248E-004	5.9721375E-009
2	0	0	1	1.338899966176541E+001	-3.3343829E-002	-3.3378474E-002	-2.406186206647593E-004	8.0314821E-009
2	0	0	0	1.388959964911919E+001	-3.8349833E-002	-3.8369633E-002	-2.714568447807464E-004	1.0415699E-008
2	0	0	1	1.439019963647297E+001	-4.3355845E-002	-4.3371495E-002	-3.006836885715439E-004	1.3041101E-008
2	0	0	0	1.489079962382675E+001	-4.8361842E-002	-4.8386663E-002	-3.372758294188779E-004	1.6319651E-008
2	0	0	1	1.539139961118053E+001	-5.3367905E-002	-5.3393114E-002	-3.723102290890921E-004	1.9878803E-008
2	0	0	0	1.589209959853179E+001	-5.8374841E-002	-5.8394358E-002	-4.082407030654694E-004	2.3838954E-008
2	0	0	0	1.639279958588304E+001	-6.3381836E-002	-6.3406497E-002	-4.468893682926132E-004	2.8335689E-008
2	0	0	1	1.689339957323682E+001	-6.8387873E-002	-6.8409421E-002	-4.842375264930534E-004	3.3126408E-008
2	0	0	0	1.739399956059060E+001	-7.3393889E-002	-7.3414430E-002	-5.197357677940405E-004	3.8156106E-008
2	0	0	1	1.789459954794438E+001	-7.8399934E-002	-7.8407019E-002	-5.598891364760605E-004	4.3899238E-008
2	0	0	0	1.839519953529816E+001	-8.3405934E-002	-8.3424427E-002	-6.001804113596506E-004	5.0069708E-008
2	0	0	1	1.889579952265194E+001	-8.8411950E-002	-8.8422440E-002	-6.411237611529483E-004	5.6689728E-008
2	0	0	0	1.939639951000572E+001	-9.3417943E-002	-9.3428202E-002	-6.861991619117481E-004	6.4110353E-008
2	0	0	1	1.989699949735950E+001	-9.8423980E-002	-9.8441258E-002	-7.241554556418166E-004	7.1286777E-008
2	0	0	1	2.039779948470823E+001	-1.0343193E-001	-1.0345887E-001	-7.639701021039582E-004	7.9039481E-008
2	0	0	0	2.089839947206201E+001	-1.0843797E-001	-1.0845705E-001	-8.155916631990431E-004	8.8456666E-008
2	0	0	1	2.139899945941579E+001	-1.1344399E-001	-1.1346765E-001	-8.573769277103321E-004	9.7284541E-008
2	0	0	0	2.189959944676957E+001	-1.1844996E-001	-1.1846544E-001	-9.062924654341047E-004	1.0736434E-007
2	0	0	1	2.240019943412335E+001	-1.2345599E-001	-1.2346335E-001	-9.594108722728607E-004	1.1845208E-007
2	0	0	0	2.290079942147713E+001	-1.2846203E-001	-1.2847884E-001	-1.016041146974031E-003	1.3053979E-007
2	0	0	1	2.340139940883091E+001	-1.3346803E-001	-1.3347848E-001	-1.082551800666931E-003	1.4449736E-007
2	0	0	0	2.390199939618469E+001	-1.3847402E-001	-1.3848066E-001	-1.130721298500878E-003	1.5658304E-007
2	0	0	1	2.440269938353595E+001	-1.4348108E-001	-1.4350620E-001	-1.193170761256973E-003	1.7122740E-007
2	0	0	1	2.490339937088720E+001	-1.4848803E-001	-1.4851943E-001	-1.266015167608780E-003	1.8802784E-007
2	0	0	0	2.540399935824098E+001	-1.5349407E-001	-1.5351853E-001	-1.318347200940352E-003	2.0239072E-007
2	0	0	1	2.590459934559476E+001	-1.5850008E-001	-1.5852730E-001	-1.404962812454048E-003	2.2272496E-007
2	0	0	0	2.640519933294854E+001	-1.6350608E-001	-1.6353261E-001	-1.484160568291227E-003	2.4270867E-007
2	0	0	1	2.690579932030232E+001	-1.6851209E-001	-1.6854194E-001	-1.546877411685197E-003	2.6071370E-007
2	0	0	0	2.740639930765610E+001	-1.7351815E-001	-1.7355934E-001	-1.647108394970970E-003	2.8587104E-007
2	0	0	1	2.790699929500988E+001	-1.7852414E-001	-1.7856701E-001	-1.726396838687113E-003	3.0827752E-007
2	0	0	0	2.840759928236366E+001	-1.8353018E-001	-1.8359637E-001	-1.808081809140789E-003	3.3195727E-007
2	0	0	1	2.890829926971492E+001	-1.8853714E-001	-1.8859805E-001	-1.898865390109403E-003	3.5812232E-007
2	0	0	1	2.940899925706617E+001	-1.9354412E-001	-1.9360037E-001	-2.016731815197331E-003	3.9044002E-007
2	0	0	0	2.990959924441995E+001	-1.9855015E-001	-1.9860904E-001	-2.121280930863726E-003	4.2130557E-007
2	0	0	1	3.041019923177373E+001	-2.0355619E-001	-2.0360453E-001	-2.249766595875840E-003	4.5806269E-007
2	0	0	0	3.091079921912751E+001	-2.0856215E-001	-2.0861499E-001	-2.383969785284587E-003	4.9733183E-007
2	0	0	1	3.141139920648129E+001	-2.1356824E-001	-2.1361721E-001	-2.519932852686750E-003	5.3830104E-007
2	0	0	0	3.191199919383507E+001	-2.1857421E-001	-2.1864265E-001	-2.648603568265871E-003	5.7909773E-007
2	0	0	1	3.241259918118885E+001	-2.2358017E-001	-2.2365116E-001	-2.775937270076467E-003	6.2084160E-007
2	0	0	0	3.291319916854263E+001	-2.2858624E-001	-2.2864823E-001	-2.908703759985400E-003	6.6506999E-007
2	0	0	1	3.341389915589389E+001	-2.3359321E-001	-2.3363690E-001	-3.041514611265027E-003	7.1061004E-007
2	0	0	1	3.391459914324514E+001	-2.3860022E-001	-2.3866600E-001	-3.200923671994836E-003	7.6395162E-007
2	0	0	0	3.441519913059892E+001	-2.4360624E-001	-2.4367285E-001	-3.339495043413794E-003	8.1374429E-007
2	0	0	1	3.491579911795270E+001	-2.4861224E-001	-2.4864961E-001	-3.526427238712028E-003	8.7684475E-007
2	0	0	0	3.541639910530648E+001	-2.5361827E-001	-2.5365350E-001	-3.741308961097492E-003	9.4899610E-007
2	0	0	1	3.591699909266026E+001	-2.5862426E-001	-2.5865015E-001	-3.951437221629141E-003	1.0220399E-006
2	0	0	0	3.641759908001404E+001	-2.6363027E-001	-2.6365125E-001	-4.164818943910797E-003	1.0980598E-006
2	0	0	1	3.691819906736782E+001	-2.6863626E-001	-2.6867330E-001	-4.384121199290061E-003	1.1778964E-006
2	0	0	0	3.741879905472160E+001	-2.7364233E-001	-2.7366629E-001	-4.620142024094262E-003	1.2643771E-006
2	0	0	0	3.791959904207033E+001	-2.7865031E-001	-2.7868432E-001	-4.857659524423311E-003	1.3537535E-006
2	0	0	1	3.842019902942411E+001	-2.8365627E-001	-2.8370187E-001	-5.130705543714226E-003	1.4555908E-006
2	0	0	0	3.892079901677789E+001	-2.8866231E-001	-2.8869158E-001	-5.401675404693440E-003	1.5594183E-006
2	0	0	1	3.942139900413167E+001	-2.9366833E-001	-2.9369026E-001	-5.713827563949031E-003	1.6780955E-006
2	0	0	0	3.992199899148545E+001	-2.9867443E-001	-2.9870993E-001	-6.030224746719258E-003	1.8012880E-006
2	0	0	1	4.042259897883923E+001	-3.0368048E-001	-3.0372670E-001	-6.372351530123610E-003	1.9354534E-006
2	0	0	0	4.092319896619301E+001	-3.0868647E-001	-3.0870771E-001	-6.762756534314011E-003	2.0877151E-006
2	0	0	1	4.142379895354679E+001	-3.1369245E-001	-3.1372011E-001	-7.112692103829697E-003	2.2313945E-006
2	0	0	0	4.192449894089805E+001	-3.1869951E-001	-3.1874865E-001	-7.519744302166117E-003	2.3969083E-006
2	0	0	0	4.242519892824930E+001	-3.2370645E-001	-3.2373819E-001	-7.958920268712782E-003	2.5766064E-006
2	0	0	1	4.292579891560308E+001	-3.2871246E-001	-3.2872948E-001	-8.432516258769313E-003	2.7720166E-006
2	0	0	0	4.342639890295686E+001	-3.3371848E-001	-3.3372983E-001	-8.874688881292336E-003	2.9617484E-006
2	0	0	1	4.392699889031064E+001	-3.3872449E-001	-3.3874473E-001	-9.367087414178604E-003	3.1730515E-006
2	0	0	0	4.442759887766442E+001	-3.4373048E-001	-3.4375530E-001	-9.871168097832676E-003	3.3932663E-006
2	0	0	1	4.494569886457612E+001	-3.4891158E-001	-3.4894031E-001	-1.043377627240117E-002	3.6407650E-006
2	0	0	1	4.546389885148528E+001	-3.5409343E-001	-3.5412374E-001	-1.103895493351381E-002	3.9091560E-006
2	0	0	1	4.596459883883654E+001	-3.5910046E-001	-3.5913113E-001	-1.165808068584134E-002	4.1867797E-006
2	0	0	0	4.646519882619032E+001	-3.6410645E-001	-3.6414304E-001	-1.230177016787899E-002	4.4796038E-006
2	0	0	1	4.696579881354410E+001	-3.6911249E-001	-3.6914608E-001	-1.299053566955249E-002	4.7954054E-006
2	0	0	0	4.746639880089788E+001	-3.7411854E-001	-3.7415203E-001	-1.373759887784862E-002	5.1399506E-006
2	0	0	1	4.796699878825166E+001	-3.7912458E-001	-3.7915382E-001	-1.449339013088806E-002	5.4952243E-006
2	0	0	0	4.846759877560544E+001	-3.8413057E-001	-3.8416812E-001	-1.529043988016927E-002	5.8740993E-006
2	0	0	1	4.896819876295922E+001	-3.8913658E-001	-3.8917512E-001	-1.615798135823524E-002	6.2882841E-006
2	0	0	0	4.946879875031300E+001	-3.9414269E-001	-3.9418307E-001	-1.702643559196530E-002	6.7115325E-006
2	0	0	1	4.996949873766425E+001	-3.9914960E-001	-3.9919361E-001	-1.796523718314663E-002	7.1716081E-006
2	0	0	1	5.047019872501551E+001	-4.0415663E-001	-4.0418649E-001	-1.894961917993854E-002	7.6591796E-006
2	0	0	0	5.097079871236929E+001	-4.0916261E-001	-4.0920025E-001	-1.994972162297382E-002	8.1634307E-006
2	0	0	1	5.147139869972307E+001	-4.1416863E-001	-4.1421255E-001	-2.100364891920278E-002	8.6999753E-006
2	0	0	0	5.197199868707685E+001	-4.1917461E-001	-4.1919851E-001	-2.217803969670901E-002	9.2970013E-006
2	0	0	1	5.247259867443063E+001	-4.2418063E-001	-4.2420948E-001	-2.339996221619439E-002	9.9264853E-006
2	0	0	0	5.297319866178441E+001	-4.2918664E-001	-4.2920378E-001	-2.456407272432506E-002	1.0542993E-005
2	0	0	1	5.347379864913819E+001	-4.3419257E-001	-4.3420976E-001	-2.575697003805687E-002	1.1183928E-005
2	0	0	0	5.397439863649197E+001	-4.3919858E-001	-4.3924019E-001	-2.709845027429336E-002	1.1902728E-005
2	0	0	0	5.447519862384070E+001	-4.4420657E-001	-4.4423872E-001	-2.846429223913410E-002	1.2644940E-005
2	0	0	1	5.497579861119448E+001	-4.4921258E-001	-4.4923759E-001	-2.992195407407849E-002	1.3442066E-005
2	0	0	0	5.547639859854826E+001	-4.5421860E-001	-4.5426217E-001	-3.151702840118162E-002	1.4316994E-005
2	0	0	1	5.597699858590204E+001	-4.5922464E-001	-4.5924965E-001	-3.332798313853236E-002	1.5305865E-005
2	0	0	0	5.647759857325582E+001	-4.6423066E-001	-4.6427375E-001	-3.498191004081598E-002	1.6241183E-005
2	0	0	1	5.697819856060960E+001	-4.6923670E-001	-4.6926042E-001	-3.675123045114304E-002	1.7245899E-005
2	0	0	0	5.747879854796338E+001	-4.7424278E-001	-4.7426370E-001	-3.865671398965675E-002	1.8333476E-005
2	0	0	1	5.797939853531716E+001	-4.7924873E-001	-4.7928429E-001	-4.044373942549484E-002	1.9384050E-005
2	0	0	0	5.848009852266841E+001	-4.8425573E-001	-4.8429537E-001	-4.231746927096303E-002	2.0494155E-005
2	0	0	0	5.898079851001967E+001	-4.8926270E-001	-4.8930585E-001	-4.444897929053434E-002	2.1749145E-005
2	0	0	1	5.948139849737345E+001	-4.9426869E-001	-4.9432060E-001	-4.657671374658534E-002	2.3023829E-005
2	0	0	0	5.998199848472723E+001	-4.9927470E-001	-4.9932107E-001	-4.893465460445556E-002	2.4434104E-005
2	0	0	1	6.048259847208101E+001	-5.0428069E-001	-5.0432336E-001	-5.133060778662427E-002	2.5887224E-005
2	0	0	0	6.098319845943479E+001	-5.0928670E-001	-5.0933176E-001	-5.377341679368697E-002	2.7388509E-005
2	0	0	1	6.148379844678857E+001	-5.1429272E-001	-5.1434422E-001	-5.637353847594140E-002	2.8995404E-005
2	0	0	0	6.198439843414235E+001	-5.1929873E-001	-5.1935703E-001	-5.897652556021549E-002	3.0629872E-005
2	0	0	1	6.248499842149613E+001	-5.2430475E-001	-5.2435112E-001	-6.167553815615900E-002	3.2339638E-005
2	0	0	0	6.298569840884738E+001	-5.2931178E-001	-5.2935463E-001	-6.463086759516856E-002	3.4212648E-005
2	0	0	0	6.348639839619864E+001	-5.3431880E-001	-5.3437048E-001	-6.758061368383039E-002	3.6113084E-005
2	0	0	1	6.398699838355242E+001	-5.3932476E-001	-5.3936875E-001	-7.071410899054906E-002	3.8140981E-005
2	0	0	0	6.448759837090620E+001	-5.4433078E-001	-5.4436958E-001	-7.402730633150278E-002	4.0298215E-005
2	0	0	1	6.498819835825998E+001	-5.4933679E-001	-5.4937148E-001	-7.731894159340480E-002	4.2476822E-005
2	0	0	0	6.548879834561376E+001	-5.5434281E-001	-5.5441201E-001	-8.076779911428877E-002	4.4778637E-005
2	0	0	1	6.598939833296754E+001	-5.5934888E-001	-5.5941373E-001	-8.448382940006827E-002	4.7261416E-005
2	0	0	0	6.648999832032132E+001	-5.6435496E-001	-5.6440306E-001	-8.825966769466653E-002	4.9814025E-005
2	0	0	1	6.699059830767510E+001	-5.6936103E-001	-5.6941426E-001	-9.215898428029856E-002	5.2476640E-005
2	0	0	0	6.749129829502635E+001	-5.7436800E-001	-5.7443005E-001	-9.618321325028378E-002	5.5250526E-005
2	0	0	0	6.799199828237761E+001	-5.7937503E-001	-5.7943255E-001	-1.002460770124034E-001	5.8085840E-005
2	0	0	1	6.850759826935246E+001	-5.8453089E-001	-5.8458263E-001	-1.047072790616115E-001	6.1210056E-005
2	0	0	0	6.902319825632731E+001	-5.8968699E-001	-5.8975691E-001	-1.092720191004092E-001	6.4443928E-005
2	0	0	1	6.952379824368109E+001	-5.9469306E-001	-5.9475780E-001	-1.138449762619638E-001	6.7710185E-005
2	0	0	0	7.002439823103487E+001	-5.9969908E-001	-5.9975892E-001	-1.186030215921711E-001	7.1133218E-005
2	0	0	1	7.052499821838865E+001	-6.0470498E-001	-6.0477465E-001	-1.235706541152997E-001	7.4732401E-005
2	0	0	0	7.102569820573990E+001	-6.0971206E-001	-6.0977894E-001	-1.285864837135098E-001	7.8409328E-005
2	0	0	0	7.152639819309115E+001	-6.1471897E-001	-6.1478996E-001	-1.337059776955050E-001	8.2201092E-005
2	0	0	1	7.202699818044493E+001	-6.1972505E-001	-6.1978889E-001	-1.390718710224763E-001	8.6195199E-005
2	0	0	0	7.252759816779871E+001	-6.2473094E-001	-6.2480599E-001	-1.444519163396458E-001	9.0254420E-005
2	0	0	1	7.302819815515250E+001	-6.2973708E-001	-6.2979245E-001	-1.502041300477677E-001	9.4597424E-005
2	0	0	0	7.352879814250628E+001	-6.3474298E-001	-6.3481236E-001	-1.560642124708179E-001	9.9071491E-005
2	0	0	1	7.402939812986006E+001	-6.3974923E-001	-6.3978267E-001	-1.621781951919496E-001	1.0375880E-004
2	0	0	0	7.452999811721384E+001	-6.4475513E-001	-6.4479887E-001	-1.683535484294945E-001	1.0855418E-004
2	0	0	1	7.503059810456762E+001	-6.4976126E-001	-6.4982057E-001	-1.745490683189401E-001	1.1342557E-004
2	0	0	1	7.553139809191634E+001	-6.5476918E-001	-6.5481734E-001	-1.809665118777711E-001	1.1850001E-004
2	0	0	0	7.603199807927012E+001	-6.5977526E-001	-6.5981263E-001	-1.876718605530061E-001	1.2382826E-004
2	0	0	1	7.653259806662390E+001	-6.6478127E-001	-6.6482478E-001	-1.945437914285952E-001	1.2933754E-004
2	0	0	0	7.703319805397769E+001	-6.6978717E-001	-6.6982502E-001	-2.014650764903112E-001	1.3494634E-004
2	0	0	1	7.753379804133147E+001	-6.7479324E-001	-6.7482966E-001	-2.084823269818883E-001	1.4069006E-004
2	0	0	0	7.803439802868525E+001	-6.7979914E-001	-6.7983568E-001	-2.159616190770332E-001	1.4681842E-004
2	0	0	1	7.853499801603903E+001	-6.8480527E-001	-6.8482786E-001	-2.236323315211881E-001	1.5314965E-004
2	0	0	0	7.903559800339281E+001	-6.8981117E-001	-6.8984526E-001	-2.314415123287424E-001	1.5965883E-004
2	0	0	1	7.953629799074406E+001	-6.9481832E-001	-6.9485259E-001	-2.393289515285829E-001	1.6629834E-004
2	0	0	1	8.003699797809531E+001	-6.9982511E-001	-6.9984901E-001	-2.474547693228426E-001	1.7318098E-004
2	0	0	0	8.053759796544909E+001	-7.0483124E-001	-7.0485640E-001	-2.557417884563087E-001	1.8026124E-004
2	0	0	1	8.103819795280288E+001	-7.0983720E-001	-7.0987844E-001	-2.642446285140414E-001	1.8758157E-004
2	0	0	0	8.153879794015666E+001	-7.1484327E-001	-7.1488529E-001	-2.730507803351276E-001	1.9519999E-004
2	0	0	1	8.203939792751044E+001	-7.1984905E-001	-7.1987659E-001	-2.820513722668840E-001	2.0304217E-004
2	0	0	0	8.253999791486422E+001	-7.2485548E-001	-7.2488040E-001	-2.911313778402237E-001	2.1103543E-004
2	0	0	1	8.304059790221800E+001	-7.2986132E-001	-7.2988373E-001	-3.005533092067614E-001	2.1936897E-004
2	0	0	0	8.354119788957178E+001	-7.3486739E-001	-7.3487842E-001	-3.100285673758210E-001	2.2783330E-004
2	0	0	1	8.404189787692303E+001	-7.3987442E-001	-7.3989874E-001	-3.198384786938373E-001	2.3664809E-004
2	0	0	1	8.454259786427428E+001	-7.4488133E-001	-7.4491239E-001	-3.298116280647174E-001	2.4568077E-004
2	0	0	0	8.504319785162807E+001	-7.4988753E-001	-7.4992812E-001	-3.400661646663338E-001	2.5502517E-004
2	0	0	1	8.554379783898185E+001	-7.5489324E-001	-7.5493217E-001	-3.504911168126359E-001	2.6459701E-004
2	0	0	0	8.604439782633563E+001	-7.5989944E-001	-7.5993842E-001	-3.610812255698992E-001	2.7439950E-004
2	0	0	1	8.654499781368941E+001	-7.6490533E-001	-7.6494271E-001	-3.716449098533885E-001	2.8428706E-004
2	0	0	0	8.704559780104319E+001	-7.6991147E-001	-7.6995593E-001	-3.827876868831410E-001	2.9472966E-004
2	0	0	1	8.754619778839697E+001	-7.7491719E-001	-7.7495944E-001	-3.939003180545217E-001	3.0525678E-004
2	0	0	0	8.804679777575075E+001	-7.7992344E-001	-7.7997053E-001	-4.051571707491881E-001	3.1601064E-004
2	0	0	1	8.854749776310200E+001	-7.8493023E-001	-7.8497559E-001	-4.167207046244377E-001	3.2711559E-004
2	0	0	1	8.904819775045326E+001	-7.8993738E-001	-7.8998560E-001	-4.285875949878690E-001	3.3857801E-004
2	0	0	0	8.954879773780704E+001	-7.9494321E-001	-7.9499948E-001	-4.404089016547239E-001	3.5012484E-004
2	0	0	1	9.004939772516082E+001	-7.9994953E-001	-8.0000740E-001	-4.528938254198529E-001	3.6231842E-004
2	0	0	0	9.054999771251460E+001	-8.0495548E-001	-8.0499661E-001	-4.653874069958057E-001	3.7463527E-004
2	0	0	1	9.105059769986838E+001	-8.0996156E-001	-8.1002527E-001	-4.779587978659122E-001	3.8715871E-004
2	0	0	0	9.155119768722216E+001	-8.1496751E-001	-8.1504548E-001	-4.909425500413764E-001	4.0014050E-004
2	0	0	1	9.205179767457594E+001	-8.1997353E-001	-8.2004511E-001	-5.040305156669529E-001	4.1332777E-004
2	0	0	0	9.255239766192972E+001	-8.2497960E-001	-8.2503980E-001	-5.173632572648699E-001	4.2684528E-004
2	0	0	0	9.305319764927845E+001	-8.2998747E-001	-8.3007002E-001	-5.311188254023538E-001	4.4086581E-004
2	0	0	1	9.355379763663223E+001	-8.3499360E-001	-8.3506036E-001	-5.449561216354439E-001	4.5507125E-004
2	0	0	0	9.405439762398601E+001	-8.3999938E-001	-8.4004468E-001	-5.590529778570197E-001	4.6962948E-004
2	0	0	1	9.455499761133979E+001	-8.4500551E-001	-8.4506911E-001	-5.733212736376681E-001	4.8449609E-004
2	0	0	0	9.505559759869357E+001	-8.5001141E-001	-8.5008484E-001	-5.881165760254268E-001	4.9994898E-004
2	0	0	1	9.555619758604735E+001	-8.5501760E-001	-8.5507697E-001	-6.029461345168556E-001	5.1556533E-004
2	0	0	0	9.605679757340113E+001	-8.6002332E-001	-8.6008209E-001	-6.178866145570252E-001	5.3143321E-004
2	0	0	1	9.655739756075491E+001	-8.6502969E-001	-8.6510324E-001	-6.333263503566067E-001	5.4789271E-004
2	0	0	0	9.705809754810616E+001	-8.7003636E-001	-8.7012058E-001	-6.490709139989854E-001	5.6476996E-004
2	0	0	0	9.755879753545742E+001	-8.7504363E-001	-8.7511241E-001	-6.650503055353010E-001	5.8199378E-004
2	0	0	1	9.805939752281120E+001	-8.8004935E-001	-8.8007754E-001	-6.812031534322855E-001	5.9951161E-004
2	0	0	0	9.855999751016498E+001	-8.8505560E-001	-8.8510138E-001	-6.977447494163833E-001	6.1757484E-004
2	0	0	1	9.906059749751876E+001	-8.9006144E-001	-8.9010447E-001	-7.140175747385946E-001	6.3555024E-004
2	0	0	0	9.956119748487254E+001	-8.9506769E-001	-8.9511079E-001	-7.310076945430786E-001	6.5433286E-004
2	0	0	1	1.000617974722263E+002	-9.0007371E-001	-9.0010703E-001	-7.478274985492579E-001	6.7312480E-004
2	0	0	0	1.005623974595801E+002	-9.0507960E-001	-9.0514737E-001	-7.650878996248884E-001	6.9251732E-004
2	0	0	1	1.010629974469339E+002	-9.1008574E-001	-9.1014296E-001	-7.828618542364474E-001	7.1251619E-004
2	0	0	0	1.015636974342851E+002	-9.1509259E-001	-9.1513950E-001	-8.006730060480451E-001	7.3272747E-004
2	0	0	0	1.020643974216364E+002	-9.2009974E-001	-9.2014587E-001	-8.190833208596739E-001	7.5367611E-004
2	0	0	1	1.025649974089902E+002	-9.2510545E-001	-9.2516625E-001	-8.373105320671499E-001	7.7465142E-004
2	0	0	0	1.030655973963439E+002	-9.3011165E-001	-9.3016851E-001	-8.561704905020413E-001	7.9638284E-004
2	0	0	1	1.035661973836977E+002	-9.3511754E-001	-9.3516296E-001	-8.752675500489158E-001	8.1851782E-004
2	0	0	0	1.040667973710515E+002	-9.4012374E-001	-9.4017345E-001	-8.947735091272566E-001	8.4124232E-004
2	0	0	1	1.045673973584053E+002	-9.4512939E-001	-9.4517964E-001	-9.142426579971019E-001	8.6412358E-004
2	0	0	0	1.050679973457591E+002	-9.5013571E-001	-9.5018476E-001	-9.341403092996785E-001	8.8760589E-004
2	0	0	1	1.055685973331128E+002	-9.5514148E-001	-9.5517051E-001	-9.541198733724183E-001	9.1134716E-004
2	0	0	1	1.060693973204616E+002	-9.6014965E-001	-9.6017462E-001	-9.743841597703948E-001	9.3557895E-004
2	0	0	0	1.065699973078154E+002	-9.6515542E-001	-9.6522188E-001	-9.947129324971566E-001	9.6011866E-004
2	0	0	1	1.070705972951691E+002	-9.7016174E-001	-9.7021019E-001	-1.015607498906782E+000	9.8535279E-004
2	0	0	0	1.075886972820808E+002	-9.7534251E-001	-9.7544527E-001	-1.037983177330252E+000	1.0124958E-003
2	0	0	0	1.081067972689925E+002	-9.8052365E-001	-9.8065072E-001	-1.060659163827077E+000	1.0401362E-003
2	0	0	1	1.086073972563463E+002	-9.8552960E-001	-9.8565239E-001	-1.082296050117701E+000	1.0667677E-003
2	0	0	0	1.091079972437001E+002	-9.9053562E-001	-9.9064702E-001	-1.104727579020214E+000	1.0943951E-003
2	0	0	0	1.096087972310488E+002	-9.9554372E-001	-9.9564159E-001	-1.127568572081120E+000	1.1226542E-003
2	0	0	1	1.099566972222601E+002	-9.9902147E-001	-9.9913096E-001	-1.143329246029055E+000	1.1423357E-003
2	0	0	0	1.100521972198476E+002	-1.0000215E+000	-1.0000188E+000	-1.148794591426849E+000	1.1488162E-003