EC-Lab ASCII FILE
Nb header lines : 55                          

I-V Characterization

Run on channel : 1 (SN 6514)
User : 
CE vs. WE compliance from -10 V to 10 V
Electrode connection : standard
Ewe ctrl range : min = -1.10 V, max = 0.20 V
Safety Limits :
	Do not start on E overload
Acquisition started on : 06/15/2016 18:39:49
Saved on :
	File : B125-G54-UN-G-D1GB-C9 BW 10mVs_C01.mpr
	Directory : E:\EC-Lab measurements\B125-G54-UN-G-D1GB\
	Host : 10.0.2.15
Device : VSP (SN 0295)
Address : USB
EC-Lab for windows v11.01 (software)
Internet server v11.00 (firmware)
Command interpretor v11.00 (firmware)
Electrode material : 
Initial state : 
Electrolyte : 
Comments : 
Electrode surface area : 0.001 cm²
Characteristic mass : 0.001 g
Equivalent Weight : 0.000 g/eq.
Density : 0.000 g/cm3
tR (h:m:s)          0:00:0.0000         
dER/dt (mV/h)       0.0                 
dER (mV)            0                   
dtR (s)             0.0000              
dE/dt               10.000              
dE/dt unit          mV/s                
Ei (V)              -1.000              
vs.                 Ref                 
EL (V)              0.100               
vs.                 Ref                 
record              <I>                 
dI                  0.000               
unit dI             µA                  
tI (s)              0.1000              
step percent        100                 
N                   100                 
E range min (V)     -1.100              
E range max (V)     0.200               
I Range             Auto                
I Range min         Unset               
I Range max         Unset               
I Range init        Unset               
Bandwidth           5                   

mode	ox/red	error	control changes	time/s	control/V	Ewe/V	<I>/mA	P/W
2	1	0	0	1.449999963369919E-001	-9.9912035E-001	-9.9925488E-001	-1.132088084220886E+000	1.1312446E-003
2	1	0	1	3.977999899507267E-001	-9.9659473E-001	-9.9668121E-001	-1.132667669046697E+000	1.1289086E-003
2	1	0	0	8.983999773045070E-001	-9.9158841E-001	-9.9167722E-001	-1.101970988416198E+000	1.0927995E-003
2	1	0	1	1.398999964658287E+000	-9.8658270E-001	-9.8669839E-001	-9.955463951212704E-001	9.8230399E-004
2	1	0	1	1.899799952007015E+000	-9.8157448E-001	-9.8167461E-001	-8.589663788980353E-001	8.4322551E-004
2	1	0	0	2.400399939360796E+000	-9.7656864E-001	-9.7666901E-001	-7.313508461294433E-001	7.1428769E-004
2	1	0	1	2.900999926714576E+000	-9.7156250E-001	-9.7164947E-001	-6.263248549196252E-001	6.0856820E-004
2	1	0	0	3.401599914068356E+000	-9.6655643E-001	-9.6665168E-001	-5.426704097028825E-001	5.2457326E-004
2	1	0	1	3.919699900980049E+000	-9.6137553E-001	-9.6142596E-001	-4.734274676404335E-001	4.5516546E-004
2	1	0	1	4.437799887891742E+000	-9.5619440E-001	-9.5621747E-001	-4.183348216490135E-001	4.0001905E-004
2	1	0	0	4.938499875242997E+000	-9.5118755E-001	-9.5123512E-001	-3.718513901733891E-001	3.5371809E-004
2	1	0	0	5.439199862594251E+000	-9.4618034E-001	-9.4624615E-001	-3.310750585078539E-001	3.1327849E-004
2	1	0	1	5.939799849948031E+000	-9.4117457E-001	-9.4122469E-001	-2.961924038938488E-001	2.7878361E-004
2	1	0	0	6.440399837301811E+000	-9.3616849E-001	-9.3621695E-001	-2.642809507695998E-001	2.4742429E-004
2	1	0	1	6.940999824655592E+000	-9.3116266E-001	-9.3121523E-001	-2.348835347463194E-001	2.1872713E-004
2	1	0	0	7.441599812009372E+000	-9.2615646E-001	-9.2621696E-001	-2.073503876668760E-001	1.9205145E-004
2	1	0	1	7.942199799363152E+000	-9.2115062E-001	-9.2119414E-001	-1.818400921114965E-001	1.6751002E-004
2	1	0	0	8.442799786716932E+000	-9.1614443E-001	-9.1617966E-001	-1.574797519130566E-001	1.4427975E-004
2	1	0	1	8.943399774070713E+000	-9.1113865E-001	-9.1118908E-001	-1.341877268161884E-001	1.2227039E-004
2	1	0	0	9.444099761421967E+000	-9.0613133E-001	-9.0618348E-001	-1.119774662646707E-001	1.0147213E-004
2	1	0	0	9.944799748773221E+000	-9.0112466E-001	-9.0118188E-001	-9.056881709739784E-002	8.1618979E-005
2	1	0	1	1.044539973612700E+001	-8.9611834E-001	-8.9616948E-001	-6.956296793772410E-002	6.2340208E-005
2	1	0	0	1.096349972303869E+001	-8.9093745E-001	-8.9098895E-001	-4.856588608353102E-002	4.3271666E-005
2	1	0	0	1.148159970995039E+001	-8.8575625E-001	-8.8579869E-001	-2.808667682282881E-002	2.4879142E-005
2	1	0	1	1.199979969685955E+001	-8.8057441E-001	-8.8061506E-001	-8.084982419229989E-003	7.1197574E-006
2	1	0	0	1.253549968332663E+001	-8.7521738E-001	-8.7526530E-001	1.216659706179920E-002	1.0649001E-005
2	1	0	0	1.305359967023833E+001	-8.7003660E-001	-8.7010086E-001	3.150739871208168E-002	2.7414615E-005
2	1	0	1	1.355419965759211E+001	-8.6503041E-001	-8.6508518E-001	4.976364327618421E-002	4.3049789E-005
2	1	0	0	1.405479964494589E+001	-8.6002445E-001	-8.6006314E-001	6.779146039292638E-002	5.8304937E-005
2	1	0	1	1.455539963229967E+001	-8.5501838E-001	-8.5506350E-001	8.551181878868214E-002	7.3118033E-005
2	1	0	0	1.507359961920884E+001	-8.4983641E-001	-8.4988302E-001	1.035860656945329E-001	8.8036039E-005
2	1	0	1	1.559179960611800E+001	-8.4465438E-001	-8.4470028E-001	1.216676140459072E-001	1.0277267E-004
2	1	0	0	1.609239959347178E+001	-8.3964825E-001	-8.3969289E-001	1.388796585712176E-001	1.1661626E-004
2	1	0	1	1.659299958082556E+001	-8.3464235E-001	-8.3470887E-001	1.553613734866626E-001	1.2968152E-004
2	1	0	0	1.709359956817934E+001	-8.2963616E-001	-8.2969654E-001	1.721073911453428E-001	1.4279691E-004
2	1	0	1	1.759419955553312E+001	-8.2463044E-001	-8.2469642E-001	1.885034451411839E-001	1.5545811E-004
2	1	0	0	1.809479954288690E+001	-8.1962425E-001	-8.1968778E-001	2.050864554918599E-001	1.6810687E-004
2	1	0	1	1.859539953024068E+001	-8.1461847E-001	-8.1469762E-001	2.209664527522941E-001	1.8002084E-004
2	1	0	1	1.909619951758941E+001	-8.0961031E-001	-8.0965829E-001	2.367809431284609E-001	1.9171165E-004
2	1	0	0	1.959679950494319E+001	-8.0460453E-001	-8.0466211E-001	2.528872074488122E-001	2.0348876E-004
2	1	0	1	2.009739949229697E+001	-7.9959834E-001	-7.9963934E-001	2.683893458500933E-001	2.1461469E-004
2	1	0	0	2.059799947965075E+001	-7.9459244E-001	-7.9464906E-001	2.834676673424417E-001	2.2525732E-004
2	1	0	1	2.109859946700453E+001	-7.8958625E-001	-7.8962612E-001	2.990974197143711E-001	2.3617514E-004
2	1	0	0	2.159919945435831E+001	-7.8458047E-001	-7.8461272E-001	3.146582802640951E-001	2.4688488E-004
2	1	0	1	2.209979944171209E+001	-7.7957422E-001	-7.7962160E-001	3.287617458730594E-001	2.5630975E-004
2	1	0	0	2.260039942906587E+001	-7.7456838E-001	-7.7460903E-001	3.441945860104405E-001	2.6661623E-004
2	1	0	1	2.310109941641713E+001	-7.6956117E-001	-7.6961946E-001	3.587324418796669E-001	2.7608746E-004
2	1	0	1	2.360179940376838E+001	-7.6455432E-001	-7.6460415E-001	3.732269629408638E-001	2.8537089E-004
2	1	0	0	2.410239939112216E+001	-7.5954825E-001	-7.5959152E-001	3.883402893662038E-001	2.9497998E-004
2	1	0	1	2.460299937847594E+001	-7.5454211E-001	-7.5457716E-001	4.018818322227027E-001	3.0325085E-004
2	1	0	0	2.510359936582972E+001	-7.4953628E-001	-7.4957067E-001	4.148057520336632E-001	3.1092623E-004
2	1	0	1	2.560419935318350E+001	-7.4453008E-001	-7.4455035E-001	4.277769399460638E-001	3.1850146E-004
2	1	0	0	2.610479934053728E+001	-7.3952425E-001	-7.3954982E-001	4.419417523808820E-001	3.2683794E-004
2	1	0	1	2.660539932789106E+001	-7.3451805E-001	-7.3453259E-001	4.559004400257978E-001	3.3487374E-004
2	1	0	0	2.710599931524484E+001	-7.2951233E-001	-7.2954357E-001	4.688926825050723E-001	3.4207763E-004
2	1	0	1	2.760669930259610E+001	-7.2450519E-001	-7.2452271E-001	4.816165221262527E-001	3.4894212E-004
2	1	0	1	2.810739928994735E+001	-7.1949834E-001	-7.1953076E-001	4.950589915596506E-001	3.5621016E-004
2	1	0	0	2.860799927730113E+001	-7.1449226E-001	-7.1452439E-001	5.068732313265230E-001	3.6217328E-004
2	1	0	1	2.910859926465491E+001	-7.0948642E-001	-7.0952719E-001	5.189612228716474E-001	3.6821709E-004
2	1	0	0	2.960919925200869E+001	-7.0448017E-001	-7.0450211E-001	5.314947265098420E-001	3.7443914E-004
2	1	0	1	3.010979923936247E+001	-6.9947422E-001	-6.9951540E-001	5.438515618753108E-001	3.8043255E-004
2	1	0	0	3.061039922671625E+001	-6.9446802E-001	-6.9449735E-001	5.547737636630590E-001	3.8528891E-004
2	1	0	1	3.111099921407003E+001	-6.8946218E-001	-6.8949366E-001	5.667953874315685E-001	3.9080181E-004
2	1	0	0	3.161159920142381E+001	-6.8445599E-001	-6.8447965E-001	5.783057615094265E-001	3.9583852E-004
2	1	0	1	3.211229918877507E+001	-6.7944914E-001	-6.7948365E-001	5.883161614493080E-001	3.9975121E-004
2	1	0	1	3.261299917612632E+001	-6.7444205E-001	-6.7447585E-001	6.000583107572139E-001	4.0472485E-004
2	1	0	0	3.311359916348010E+001	-6.6943610E-001	-6.6947860E-001	6.115031308032175E-001	4.0938825E-004
2	1	0	1	3.361419915083388E+001	-6.6443002E-001	-6.6445559E-001	6.211274245840996E-001	4.1271158E-004
2	1	0	0	3.411479913818766E+001	-6.5942395E-001	-6.5943611E-001	6.295741115622402E-001	4.1516390E-004
2	1	0	1	3.461539912554144E+001	-6.5441805E-001	-6.5446132E-001	6.414222624805337E-001	4.1978605E-004
2	1	0	0	3.511599911289522E+001	-6.4941198E-001	-6.4943904E-001	6.521007409959524E-001	4.2349967E-004
2	1	0	1	3.561659910024900E+001	-6.4440608E-001	-6.4444155E-001	6.602914997282632E-001	4.2551928E-004
2	1	0	0	3.611719908760278E+001	-6.3940001E-001	-6.3945621E-001	6.680582781212872E-001	4.2719403E-004
2	1	0	0	3.661799907495151E+001	-6.3439214E-001	-6.3444149E-001	6.786996183231246E-001	4.3059519E-004
2	1	0	1	3.711859906230529E+001	-6.2938607E-001	-6.2945658E-001	6.890730299395207E-001	4.3374154E-004
2	1	0	0	3.761919904965907E+001	-6.2437999E-001	-6.2443829E-001	6.980605524109507E-001	4.3589572E-004
2	1	0	1	3.811979903701285E+001	-6.1937392E-001	-6.1943620E-001	7.062468229245980E-001	4.3747484E-004
2	1	0	0	3.862039902436663E+001	-6.1436802E-001	-6.1444378E-001	7.161340250166051E-001	4.4002410E-004
2	1	0	1	3.912099901172041E+001	-6.0936189E-001	-6.0941476E-001	7.239866318248795E-001	4.4120813E-004
2	1	0	0	3.962159899907419E+001	-6.0435593E-001	-6.0440886E-001	7.308884105705022E-001	4.4175543E-004
2	1	0	1	4.012219898642797E+001	-5.9934986E-001	-5.9941262E-001	7.384043786871155E-001	4.4260890E-004
2	1	0	0	4.062289897377923E+001	-5.9434295E-001	-5.9441161E-001	7.468124438502191E-001	4.4391397E-004
2	1	0	0	4.112359896113048E+001	-5.8933574E-001	-5.8940458E-001	7.556502952198203E-001	4.4538375E-004
2	1	0	1	4.162419894848426E+001	-5.8432990E-001	-5.8437842E-001	7.636535164869913E-001	4.4626262E-004
2	1	0	0	4.212479893583804E+001	-5.7932377E-001	-5.7938039E-001	7.690971489591749E-001	4.4559981E-004
2	1	0	1	4.262539892319182E+001	-5.7431775E-001	-5.7436824E-001	7.755636467019329E-001	4.4545913E-004
2	1	0	0	4.312599891054560E+001	-5.6931174E-001	-5.6935871E-001	7.843958705731713E-001	4.4660261E-004
2	1	0	1	4.362659889789938E+001	-5.6430566E-001	-5.6435382E-001	7.911276474567916E-001	4.4647593E-004
2	1	0	0	4.412719888525316E+001	-5.5929983E-001	-5.5936891E-001	7.970214989159077E-001	4.4582904E-004
2	1	0	1	4.462779887260695E+001	-5.5429375E-001	-5.5437303E-001	8.013375843215869E-001	4.4423994E-004
2	1	0	0	4.512849885995820E+001	-5.4928678E-001	-5.4933405E-001	8.110009239959535E-001	4.4551044E-004
2	1	0	0	4.562919884730945E+001	-5.4427981E-001	-5.4433101E-001	8.171335663180361E-001	4.4479113E-004
2	1	0	1	4.612979883466323E+001	-5.3927380E-001	-5.3932637E-001	8.242553979641087E-001	4.4454267E-004
2	1	0	0	4.663039882201701E+001	-5.3426772E-001	-5.3433049E-001	8.279052963212650E-001	4.4237505E-004
2	1	0	1	4.713099880937079E+001	-5.2926171E-001	-5.2931374E-001	8.345943058711982E-001	4.4176224E-004
2	1	0	0	4.763159879672457E+001	-5.2425569E-001	-5.2431440E-001	8.402333777126145E-001	4.4054646E-004
2	1	0	1	4.813219878407835E+001	-5.1924968E-001	-5.1932037E-001	8.452022491432452E-001	4.3893076E-004
2	1	0	0	4.863279877143214E+001	-5.1424366E-001	-5.1431447E-001	8.506163733213583E-001	4.3748430E-004
2	1	0	1	4.913339875878592E+001	-5.0923771E-001	-5.0929546E-001	8.563751556181201E-001	4.3614800E-004
2	1	0	1	4.963419874613464E+001	-5.0422972E-001	-5.0429076E-001	8.601583034582436E-001	4.3376989E-004
2	1	0	0	5.013479873348842E+001	-4.9922362E-001	-4.9928296E-001	8.662251049568894E-001	4.3249142E-004
2	1	0	1	5.063539872084220E+001	-4.9421757E-001	-4.9428445E-001	8.706929904871199E-001	4.3037001E-004
2	1	0	0	5.113599870819598E+001	-4.8921153E-001	-4.8926744E-001	8.751964858026646E-001	4.2820515E-004
2	1	0	1	5.163659869554976E+001	-4.8420545E-001	-4.8425201E-001	8.801374399813975E-001	4.2620831E-004
2	1	0	0	5.213719868290355E+001	-4.7919953E-001	-4.7924948E-001	8.859082605222541E-001	4.2457107E-004
2	1	0	1	5.263779867025733E+001	-4.7419354E-001	-4.7423312E-001	8.896474613654259E-001	4.2190030E-004
2	1	0	0	5.313839865761111E+001	-4.6918753E-001	-4.6921468E-001	8.948135396720174E-001	4.1985966E-004
2	1	0	1	5.363899864496489E+001	-4.6418151E-001	-4.6421361E-001	8.964937295307807E-001	4.1616458E-004
2	1	0	1	5.413979863231361E+001	-4.5917359E-001	-4.5922166E-001	9.005463915955012E-001	4.1355041E-004
2	1	0	0	5.464039861966739E+001	-4.5416760E-001	-4.5421150E-001	9.049174298690854E-001	4.1102391E-004
2	1	0	1	5.514099860702117E+001	-4.4916162E-001	-4.4918680E-001	9.080550052602567E-001	4.0788631E-004
2	1	0	0	5.564159859437495E+001	-4.4415557E-001	-4.4419199E-001	9.126106091572073E-001	4.0537433E-004
2	1	0	1	5.614219858172874E+001	-4.3914956E-001	-4.3918532E-001	9.142135013074277E-001	4.0150914E-004
2	1	0	0	5.664279856908252E+001	-4.3414360E-001	-4.3417814E-001	9.186898611708898E-001	3.9887507E-004
2	1	0	1	5.714339855643630E+001	-4.2913759E-001	-4.2915520E-001	9.229296133405942E-001	3.9608005E-004
2	1	0	0	5.764399854379008E+001	-4.2413154E-001	-4.2415527E-001	9.238982465722483E-001	3.9187630E-004
2	1	0	1	5.814469853114133E+001	-4.1912448E-001	-4.1915688E-001	9.267126785439981E-001	3.8843800E-004
2	1	0	1	5.864539851849258E+001	-4.1411749E-001	-4.1415688E-001	9.327752164693344E-001	3.8631528E-004
2	1	0	0	5.914599850584636E+001	-4.0911147E-001	-4.0913868E-001	9.336673056095379E-001	3.8199942E-004
2	1	0	1	5.964659849320014E+001	-4.0410548E-001	-4.0413314E-001	9.350673228504167E-001	3.7789170E-004
2	1	0	0	6.014719848055393E+001	-3.9909938E-001	-3.9914826E-001	9.401737049867567E-001	3.7526869E-004
2	1	0	1	6.064779846790771E+001	-3.9409339E-001	-3.9413047E-001	9.424857163998510E-001	3.7146235E-004
2	1	0	0	6.114839845526149E+001	-3.8908738E-001	-3.8912162E-001	9.458399328388412E-001	3.6804678E-004
2	1	0	1	6.164899844261527E+001	-3.8408139E-001	-3.8413906E-001	9.459860633845807E-001	3.6339019E-004
2	1	0	0	6.214959842996905E+001	-3.7907541E-001	-3.7912357E-001	9.496613530915123E-001	3.6003900E-004
2	1	0	1	6.265029841732030E+001	-3.7406847E-001	-3.7411597E-001	9.540691508794366E-001	3.5693252E-004
2	1	0	1	6.315099840467155E+001	-3.6906144E-001	-3.6909580E-001	9.569134537580357E-001	3.5319274E-004
2	1	0	0	6.365159839202533E+001	-3.6405545E-001	-3.6409914E-001	9.568980165203840E-001	3.4840574E-004
2	1	0	1	6.415219837937912E+001	-3.5904947E-001	-3.5909167E-001	9.587045044690949E-001	3.4426281E-004
2	1	0	0	6.465279836673290E+001	-3.5404342E-001	-3.5408381E-001	9.633176339760530E-001	3.4109518E-004
2	1	0	1	6.515339835408668E+001	-3.4903741E-001	-3.4906542E-001	9.649084247734843E-001	3.3681616E-004
2	1	0	0	6.565399834144046E+001	-3.4403145E-001	-3.4406522E-001	9.682376004720812E-001	3.3313688E-004
2	1	0	1	6.615459832879424E+001	-3.3902535E-001	-3.3904976E-001	9.681229021511522E-001	3.2824185E-004
2	1	0	0	6.665519831614802E+001	-3.3401939E-001	-3.3403662E-001	9.674670780822554E-001	3.2316943E-004
2	1	0	0	6.715599830349674E+001	-3.2901141E-001	-3.2902434E-001	9.718132825776351E-001	3.1975022E-004
2	1	0	1	6.765659829085052E+001	-3.2400540E-001	-3.2403153E-001	9.740819432780903E-001	3.1563325E-004
2	1	0	0	6.815719827820431E+001	-3.1899932E-001	-3.1904167E-001	9.742257884613572E-001	3.1081864E-004
2	1	0	1	6.865779826555809E+001	-3.1399328E-001	-3.1402716E-001	9.755833107034348E-001	3.0635967E-004
2	1	0	0	6.915839825291187E+001	-3.0898726E-001	-3.0904633E-001	9.807114660092555E-001	3.0308528E-004
2	1	0	1	6.965899824026565E+001	-3.0398124E-001	-3.0403283E-001	9.802459960290184E-001	2.9802698E-004
2	1	0	0	7.015959822761943E+001	-2.9897526E-001	-2.9900402E-001	9.788205099502152E-001	2.9267126E-004
2	1	0	1	7.066019821497321E+001	-2.9396918E-001	-2.9399931E-001	9.806024811963479E-001	2.8829646E-004
2	1	0	0	7.116089820232446E+001	-2.8896222E-001	-2.8898975E-001	9.825786498752427E-001	2.8395516E-004
2	1	0	0	7.166159818967571E+001	-2.8395525E-001	-2.8399828E-001	9.856352721740302E-001	2.7991872E-004
2	1	0	1	7.216219817702950E+001	-2.7894926E-001	-2.7899608E-001	9.872277282813533E-001	2.7543266E-004
2	1	0	0	7.266279816438328E+001	-2.7394319E-001	-2.7397463E-001	9.870738177782936E-001	2.7043317E-004
2	1	0	1	7.316339815173706E+001	-2.6893720E-001	-2.6897985E-001	9.898510281865125E-001	2.6624999E-004
2	1	0	0	7.366399813909084E+001	-2.6393116E-001	-2.6398236E-001	9.897313557554597E-001	2.6127161E-004
2	1	0	1	7.416459812644462E+001	-2.5892517E-001	-2.5897402E-001	9.930217756071675E-001	2.5716683E-004
2	1	0	0	7.466519811379840E+001	-2.5391915E-001	-2.5396121E-001	9.922794186684749E-001	2.5200046E-004
2	1	0	1	7.516579810115218E+001	-2.4891311E-001	-2.4894704E-001	9.925070462215113E-001	2.4708168E-004
2	1	0	0	7.566649808850343E+001	-2.4390613E-001	-2.4396071E-001	9.954586448184699E-001	2.4285280E-004
2	1	0	0	7.616719807585469E+001	-2.3889917E-001	-2.3895364E-001	9.990803632006189E-001	2.3873389E-004
2	1	0	1	7.666779806320847E+001	-2.3389313E-001	-2.3395579E-001	9.994568326197406E-001	2.3382870E-004
2	1	0	0	7.716839805056225E+001	-2.2888710E-001	-2.2895549E-001	9.990574424993497E-001	2.2873969E-004
2	1	0	1	7.766899803791603E+001	-2.2388111E-001	-2.2394566E-001	9.990094930498001E-001	2.2372384E-004
2	1	0	0	7.816959802526981E+001	-2.1887508E-001	-2.1894050E-001	1.001070518855467E+000	2.1917488E-004
2	1	0	1	7.867019801262359E+001	-2.1386909E-001	-2.1394384E-001	1.000382321772653E+000	2.1402564E-004
2	1	0	0	7.917079799997737E+001	-2.0886309E-001	-2.0891607E-001	1.002215876732491E+000	2.0937900E-004
2	1	0	1	7.967139798733115E+001	-2.0385706E-001	-2.0392865E-001	1.003835296652381E+000	2.0471077E-004
2	1	0	0	8.017209797468240E+001	-1.9885011E-001	-1.9890997E-001	1.003030997090278E+000	1.9951287E-004
2	1	0	0	8.067279796203366E+001	-1.9384307E-001	-1.9389114E-001	1.004187103269548E+000	1.9470298E-004
2	1	0	1	8.117339794938744E+001	-1.8883704E-001	-1.8889695E-001	1.006767164571333E+000	1.9017525E-004
2	1	0	0	8.167399793674122E+001	-1.8383104E-001	-1.8389267E-001	1.006569274601188E+000	1.8510071E-004
2	1	0	1	8.217459792409500E+001	-1.7882502E-001	-1.7887452E-001	1.007010966713889E+000	1.8012861E-004
2	1	0	0	8.267519791144878E+001	-1.7381901E-001	-1.7387101E-001	1.009255057539869E+000	1.7548019E-004
2	1	0	1	8.317579789880256E+001	-1.6881301E-001	-1.6885781E-001	1.009909744165937E+000	1.7053114E-004
2	1	0	0	8.367639788615634E+001	-1.6380702E-001	-1.6385387E-001	1.008416981503213E+000	1.6523302E-004
2	1	0	1	8.417699787351012E+001	-1.5880100E-001	-1.5884717E-001	1.010311424520282E+000	1.6048511E-004
2	1	0	1	8.467779786085885E+001	-1.5379302E-001	-1.5382901E-001	1.009059515246005E+000	1.5522263E-004
2	1	0	0	8.517839784821263E+001	-1.4878699E-001	-1.4881475E-001	1.011974044542018E+000	1.5059666E-004
2	1	0	1	8.567899783556641E+001	-1.4378095E-001	-1.4380772E-001	1.012741049396393E+000	1.4563999E-004
2	1	0	0	8.617959782292019E+001	-1.3877495E-001	-1.3878955E-001	1.009953281057706E+000	1.4017096E-004
2	1	0	1	8.668019781027397E+001	-1.3376895E-001	-1.3378920E-001	1.013651126281935E+000	1.3561557E-004
2	1	0	0	8.718079779762775E+001	-1.2876289E-001	-1.2879600E-001	1.013435208252648E+000	1.3052640E-004
2	1	0	1	8.768139778498153E+001	-1.2375686E-001	-1.2378480E-001	1.013887394842739E+000	1.2550385E-004
2	1	0	0	8.818199777233531E+001	-1.1875083E-001	-1.1877553E-001	1.016877503698343E+000	1.2078017E-004
2	1	0	1	8.868269775968656E+001	-1.1374385E-001	-1.1374807E-001	1.014998798237734E+000	1.1545416E-004
2	1	0	1	8.918339774703782E+001	-1.0873691E-001	-1.0873859E-001	1.014956309055297E+000	1.1036491E-004
2	1	0	0	8.968399773439160E+001	-1.0373087E-001	-1.0375023E-001	1.015961475406648E+000	1.0540624E-004
2	1	0	1	9.020209772130329E+001	-9.8549850E-002	-9.8583110E-002	1.018012181861081E+000	1.0035880E-004
2	1	0	1	9.072019770821498E+001	-9.3368836E-002	-9.3413211E-002	1.015832228060109E+000	9.4892152E-005
2	1	0	0	9.122079769556876E+001	-8.8362806E-002	-8.8431492E-002	1.015456239523779E+000	8.9798312E-005
2	1	0	1	9.172139768292254E+001	-8.3356798E-002	-8.3411641E-002	1.019025683328266E+000	8.4998603E-005
2	1	0	0	9.222209767027380E+001	-7.8349814E-002	-7.8409597E-002	1.015947446696176E+000	7.9660029E-005
2	1	0	0	9.272279765762505E+001	-7.3342793E-002	-7.3401041E-002	1.017573076540621E+000	7.4690921E-005
2	1	0	1	9.322339764497883E+001	-6.8336800E-002	-6.8403892E-002	1.019623010735838E+000	6.9746180E-005
2	1	0	0	9.372399763233261E+001	-6.3330799E-002	-6.3394517E-002	1.018285825371052E+000	6.4553737E-005
2	1	0	1	9.422459761968639E+001	-5.8324762E-002	-5.8388464E-002	1.018719458058762E+000	5.9481463E-005
2	1	0	0	9.472519760704017E+001	-5.3318754E-002	-5.3378195E-002	1.018205360527855E+000	5.4349963E-005
2	1	0	1	9.522579759439395E+001	-4.8312731E-002	-4.8373852E-002	1.017224989504452E+000	4.9207090E-005
2	1	0	0	9.572639758174773E+001	-4.3306701E-002	-4.3369427E-002	1.019650592471296E+000	4.4221662E-005
2	1	0	1	9.622699756910151E+001	-3.8300693E-002	-3.8353398E-002	1.018606377405629E+000	3.9067017E-005
2	1	0	0	9.672769755645277E+001	-3.3293746E-002	-3.3346385E-002	1.019329801521131E+000	3.3990964E-005
2	1	0	0	9.722839754380402E+001	-2.8286744E-002	-2.8352389E-002	1.020315014151418E+000	2.8928369E-005
2	1	0	1	9.772899753115780E+001	-2.3280710E-002	-2.3341518E-002	1.019302404795319E+000	2.3792065E-005
2	1	0	0	9.822959751851158E+001	-1.8274711E-002	-1.8331330E-002	1.021002084239708E+000	1.8716326E-005
2	1	0	1	9.873019750586536E+001	-1.3268692E-002	-1.3340449E-002	1.019511904874779E+000	1.3600747E-005
2	1	0	0	9.923079749321914E+001	-8.2626548E-003	-8.3521958E-003	1.021980859069991E+000	8.5357842E-006
2	1	0	1	9.973139748057292E+001	-3.2566581E-003	-3.3361812E-003	1.022009845018565E+000	3.4096099E-006
2	1	0	0	1.002319974679267E+002	1.7493343E-003	1.6920663E-003	1.021691851013173E+000	1.7287704E-006
2	1	0	1	1.007325974552805E+002	6.7553502E-003	6.6800341E-003	1.025614883205526E+000	6.8511422E-006
2	1	0	1	1.012333974426292E+002	1.1763285E-002	1.1693609E-002	1.025199152079033E+000	1.1988278E-005
2	1	0	0	1.017339974299830E+002	1.6769299E-002	1.6706221E-002	1.024008305566262E+000	1.7107310E-005
2	1	0	1	1.022345974173368E+002	2.1775290E-002	2.1704352E-002	1.024135924748089E+000	2.2228207E-005
2	1	0	0	1.027351974046906E+002	2.6781270E-002	2.6714351E-002	1.023563539127462E+000	2.7343836E-005
2	1	0	1	1.032357973920443E+002	3.1787250E-002	3.1726688E-002	1.020462241595801E+000	3.2375887E-005
2	1	0	0	1.037363973793981E+002	3.6793265E-002	3.6727041E-002	1.023455949826815E+000	3.7588510E-005
2	1	0	1	1.042369973667519E+002	4.1799255E-002	4.1742478E-002	1.025464654852323E+000	4.2805434E-005
2	1	0	0	1.047375973541057E+002	4.6805266E-002	4.6745680E-002	1.023800258041176E+000	4.7858241E-005
2	1	0	1	1.052382973414569E+002	5.1812258E-002	5.1746931E-002	1.024642002759413E+000	5.3022079E-005
2	1	0	1	1.057389973288082E+002	5.6819182E-002	5.6760125E-002	1.023449825118096E+000	5.8091140E-005
2	1	0	0	1.062395973161620E+002	6.1825175E-002	6.1758086E-002	1.024907204551125E+000	6.3296306E-005
2	1	0	1	1.067401973035157E+002	6.6831194E-002	6.6774629E-002	1.022781306007861E+000	6.8295842E-005
2	1	0	0	1.072407972908695E+002	7.1837157E-002	7.1772069E-002	1.025184132892443E+000	7.3579584E-005
2	1	0	1	1.077413972782233E+002	7.6843180E-002	7.6792128E-002	1.027843329113898E+000	7.8930279E-005
2	1	0	0	1.082419972655771E+002	8.1849173E-002	8.1799753E-002	1.026650699033947E+000	8.3979772E-005
2	1	0	1	1.087425972529309E+002	8.6855195E-002	8.6797088E-002	1.024732821830852E+000	8.8943823E-005
2	1	0	0	1.092431972402846E+002	9.1861181E-002	9.1796279E-002	1.026725532870682E+000	9.4249583E-005
2	1	0	1	1.097438972276359E+002	9.6868128E-002	9.6808694E-002	1.027432798576350E+000	9.9464429E-005
2	1	0	1	1.100242972205524E+002	9.9671803E-002	9.9593103E-002	1.024838675748215E+000	1.0206686E-004
2	1	0	0	1.100545972197870E+002	9.9997252E-002	9.9955998E-002	1.025766823972972E+000	1.0253155E-004