EC-Lab ASCII FILE
Nb header lines : 55                          

I-V Characterization

Run on channel : 1 (SN 6514)
User : 
CE vs. WE compliance from -10 V to 10 V
Electrode connection : standard
Ewe ctrl range : min = -1.10 V, max = 0.20 V
Safety Limits :
	Do not start on E overload
Acquisition started on : 06/15/2016 18:26:41
Saved on :
	File : B125-G54-UN-G-D1GB-C8 BW 10mVs_C01.mpr
	Directory : E:\EC-Lab measurements\B125-G54-UN-G-D1GB\
	Host : 10.0.2.15
Device : VSP (SN 0295)
Address : USB
EC-Lab for windows v11.01 (software)
Internet server v11.00 (firmware)
Command interpretor v11.00 (firmware)
Electrode material : 
Initial state : 
Electrolyte : 
Comments : 
Electrode surface area : 0.001 cm²
Characteristic mass : 0.001 g
Equivalent Weight : 0.000 g/eq.
Density : 0.000 g/cm3
tR (h:m:s)          0:00:0.0000         
dER/dt (mV/h)       0.0                 
dER (mV)            0                   
dtR (s)             0.0000              
dE/dt               10.000              
dE/dt unit          mV/s                
Ei (V)              -1.000              
vs.                 Ref                 
EL (V)              0.100               
vs.                 Ref                 
record              <I>                 
dI                  0.000               
unit dI             µA                  
tI (s)              0.1000              
step percent        100                 
N                   100                 
E range min (V)     -1.100              
E range max (V)     0.200               
I Range             Auto                
I Range min         Unset               
I Range max         Unset               
I Range init        Unset               
Bandwidth           5                   

mode	ox/red	error	control changes	time/s	control/V	Ewe/V	<I>/mA	P/W
2	1	0	0	1.449999963369919E-001	-9.9912035E-001	-9.9921668E-001	-1.138506751060486E+000	1.1376149E-003
2	1	0	1	3.977999899507267E-001	-9.9659473E-001	-9.9669152E-001	-1.145272840392840E+000	1.1414838E-003
2	1	0	0	8.983999773045070E-001	-9.9158841E-001	-9.9169189E-001	-1.130566610914494E+000	1.1211737E-003
2	1	0	1	1.398999964658287E+000	-9.8658270E-001	-9.8670256E-001	-1.062926994596838E+000	1.0487927E-003
2	1	0	1	1.899799952007015E+000	-9.8157448E-001	-9.8168558E-001	-9.676276143431970E-001	9.4990607E-004
2	1	0	0	2.400399939360796E+000	-9.7656864E-001	-9.7668117E-001	-8.698491305524563E-001	8.4956526E-004
2	1	0	1	2.900999926714576E+000	-9.7156250E-001	-9.7166336E-001	-7.837947734687241E-001	7.6158467E-004
2	1	0	0	3.401599914068356E+000	-9.6655643E-001	-9.6665531E-001	-7.085419491251592E-001	6.8491587E-004
2	1	0	1	3.902199901422136E+000	-9.6155053E-001	-9.6163768E-001	-6.470936513117096E-001	6.2226964E-004
2	1	0	0	4.402799888775917E+000	-9.5654434E-001	-9.5660657E-001	-5.959624798426049E-001	5.7010161E-004
2	1	0	1	4.903399876129697E+000	-9.5153862E-001	-9.5163441E-001	-5.507636212324263E-001	5.2412559E-004
2	1	0	0	5.403999863483477E+000	-9.4653225E-001	-9.4664425E-001	-5.113632793956029E-001	4.8407909E-004
2	1	0	1	5.922199850392644E+000	-9.4135070E-001	-9.4141185E-001	-4.754403339824647E-001	4.4758516E-004
2	1	0	0	6.440399837301811E+000	-9.3616849E-001	-9.3622565E-001	-4.429933157015555E-001	4.1474172E-004
2	1	0	1	6.940999824655592E+000	-9.3116266E-001	-9.3121940E-001	-4.144638002544712E-001	3.8595672E-004
2	1	0	0	7.441599812009372E+000	-9.2615646E-001	-9.2620987E-001	-3.878183919387821E-001	3.5920122E-004
2	1	0	1	7.942199799363152E+000	-9.2115062E-001	-9.2120600E-001	-3.627742687308508E-001	3.3418983E-004
2	1	0	0	8.442799786716932E+000	-9.1614443E-001	-9.1619933E-001	-3.382189168483389E-001	3.0987593E-004
2	1	0	1	8.943399774070713E+000	-9.1113865E-001	-9.1120267E-001	-3.161357578050770E-001	2.8806375E-004
2	1	0	0	9.444099761421967E+000	-9.0613133E-001	-9.0618873E-001	-2.942671713022058E-001	2.6666161E-004
2	1	0	0	9.944799748773221E+000	-9.0112466E-001	-9.0117598E-001	-2.735942450525393E-001	2.4655656E-004
2	1	0	1	1.044539973612700E+001	-8.9611834E-001	-8.9616895E-001	-2.534157718987800E-001	2.2710334E-004
2	1	0	0	1.094599972348078E+001	-8.9111269E-001	-8.9115530E-001	-2.336034641522103E-001	2.0817696E-004
2	1	0	1	1.144659971083456E+001	-8.8610637E-001	-8.8615417E-001	-2.143895468753628E-001	1.8998219E-004
2	1	0	0	1.194719969818834E+001	-8.8110054E-001	-8.8113177E-001	-1.957982286731359E-001	1.7252404E-004
2	1	0	1	1.244779968554212E+001	-8.7609440E-001	-8.7615931E-001	-1.777846617543588E-001	1.5576769E-004
2	1	0	0	1.294839967289590E+001	-8.7108833E-001	-8.7116414E-001	-1.595798589538244E-001	1.3902025E-004
2	1	0	1	1.344899966024968E+001	-8.6608249E-001	-8.6616057E-001	-1.423193048849573E-001	1.2327137E-004
2	1	0	1	1.394979964759841E+001	-8.6107433E-001	-8.6115772E-001	-1.247971090276792E-001	1.0746999E-004
2	1	0	0	1.445039963495219E+001	-8.5606849E-001	-8.5612726E-001	-1.073162998872097E-001	9.1876413E-005
2	1	0	1	1.495099962230597E+001	-8.5106236E-001	-8.5112804E-001	-9.060646303996056E-002	7.7117700E-005
2	1	0	0	1.545159960965975E+001	-8.4605652E-001	-8.4612310E-001	-7.386335804249644E-002	6.2497493E-005
2	1	0	1	1.595219959701353E+001	-8.4105033E-001	-8.4110510E-001	-5.721973967822927E-002	4.8127815E-005
2	1	0	0	1.647029958392523E+001	-8.3586949E-001	-8.3594590E-001	-4.035675769573188E-002	3.3736065E-005
2	1	0	0	1.698839957083692E+001	-8.3068830E-001	-8.3075422E-001	-2.386457936620612E-002	1.9825600E-005
2	1	0	0	1.750669955774356E+001	-8.2550538E-001	-8.2556784E-001	-7.116266934855880E-003	5.8749611E-006
2	1	0	0	1.804229954421317E+001	-8.2014918E-001	-8.2020718E-001	9.784825256480160E-003	8.0255841E-006
2	1	0	0	1.856039953112486E+001	-8.1496853E-001	-8.1502026E-001	2.620772725361531E-002	2.1359829E-005
2	1	0	1	1.906099951847864E+001	-8.0996227E-001	-8.1002021E-001	4.165349095692789E-002	3.3740169E-005
2	1	0	0	1.956169950582989E+001	-8.0495542E-001	-8.0500203E-001	5.702217772623863E-002	4.5902969E-005
2	1	0	0	2.006239949318115E+001	-7.9994833E-001	-7.9999119E-001	7.233116574637255E-002	5.7864294E-005
2	1	0	1	2.056299948053493E+001	-7.9494238E-001	-7.9497194E-001	8.745474038928536E-002	6.9524067E-005
2	1	0	0	2.108109946744662E+001	-7.8976130E-001	-7.8979528E-001	1.027788355288074E-001	8.1174236E-005
2	1	0	0	2.159919945435831E+001	-7.8458047E-001	-7.8461921E-001	1.180609786197167E-001	9.2632908E-005
2	1	0	1	2.209979944171209E+001	-7.7957422E-001	-7.7961034E-001	1.326666740176261E-001	1.0342831E-004
2	1	0	0	2.260039942906587E+001	-7.7456838E-001	-7.7461046E-001	1.471994207506824E-001	1.1402221E-004
2	1	0	1	2.310109941641713E+001	-7.6956117E-001	-7.6960170E-001	1.616534256487003E-001	1.2440875E-004
2	1	0	1	2.360179940376838E+001	-7.6455432E-001	-7.6459372E-001	1.755921432782825E-001	1.3425665E-004
2	1	0	0	2.410239939112216E+001	-7.5954825E-001	-7.5958365E-001	1.897666615929436E-001	1.4414365E-004
2	1	0	1	2.460299937847594E+001	-7.5454211E-001	-7.5455695E-001	2.039145065758134E-001	1.5386511E-004
2	1	0	0	2.510359936582972E+001	-7.4953628E-001	-7.4956226E-001	2.177401828618564E-001	1.6320983E-004
2	1	0	1	2.560419935318350E+001	-7.4453008E-001	-7.4455422E-001	2.313132082142637E-001	1.7222522E-004
2	1	0	0	2.610479934053728E+001	-7.3952425E-001	-7.3955715E-001	2.441249269952825E-001	1.8054433E-004
2	1	0	1	2.660539932789106E+001	-7.3451805E-001	-7.3454559E-001	2.577518714718501E-001	1.8933050E-004
2	1	0	0	2.710599931524484E+001	-7.2951233E-001	-7.2952724E-001	2.713569921296335E-001	1.9796232E-004
2	1	0	1	2.760669930259610E+001	-7.2450519E-001	-7.2453845E-001	2.849626278353223E-001	2.0646639E-004
2	1	0	1	2.810739928994735E+001	-7.1949834E-001	-7.1951914E-001	2.982366267253749E-001	2.1458697E-004
2	1	0	0	2.860799927730113E+001	-7.1449226E-001	-7.1453935E-001	3.102197999074492E-001	2.2166426E-004
2	1	0	1	2.910859926465491E+001	-7.0948642E-001	-7.0953184E-001	3.222301402788066E-001	2.2863255E-004
2	1	0	0	2.960919925200869E+001	-7.0448017E-001	-7.0451230E-001	3.356364888772498E-001	2.3646004E-004
2	1	0	1	3.010979923936247E+001	-6.9947422E-001	-6.9952416E-001	3.485946751594629E-001	2.4385040E-004
2	1	0	0	3.061039922671625E+001	-6.9446802E-001	-6.9450337E-001	3.600893407523147E-001	2.5008325E-004
2	1	0	1	3.111099921407003E+001	-6.8946218E-001	-6.8949437E-001	3.723456734822337E-001	2.5673024E-004
2	1	0	0	3.161159920142381E+001	-6.8445599E-001	-6.8448555E-001	3.848477418559817E-001	2.6342273E-004
2	1	0	1	3.211229918877507E+001	-6.7944914E-001	-6.7949361E-001	3.962332533532380E-001	2.6923796E-004
2	1	0	1	3.261299917612632E+001	-6.7444205E-001	-6.7448509E-001	4.070201775931053E-001	2.7452904E-004
2	1	0	0	3.311359916348010E+001	-6.6943610E-001	-6.6948253E-001	4.188775998302257E-001	2.8043124E-004
2	1	0	1	3.361419915083388E+001	-6.6443002E-001	-6.6445774E-001	4.308251582387035E-001	2.8626510E-004
2	1	0	0	3.411479913818766E+001	-6.5942395E-001	-6.5946490E-001	4.409407591667067E-001	2.9078496E-004
2	1	0	1	3.461539912554144E+001	-6.5441805E-001	-6.5446788E-001	4.521434670638484E-001	2.9591337E-004
2	1	0	0	3.511599911289522E+001	-6.4941198E-001	-6.4946228E-001	4.635752590646351E-001	3.0107464E-004
2	1	0	1	3.561659910024900E+001	-6.4440608E-001	-6.4445198E-001	4.727900272856975E-001	3.0469047E-004
2	1	0	0	3.611719908760278E+001	-6.3940001E-001	-6.3945764E-001	4.832734631869293E-001	3.0903291E-004
2	1	0	0	3.661799907495151E+001	-6.3439214E-001	-6.3445365E-001	4.950630066613116E-001	3.1409453E-004
2	1	0	1	3.711859906230529E+001	-6.2938607E-001	-6.2946296E-001	5.051501022582610E-001	3.1797329E-004
2	1	0	0	3.761919904965907E+001	-6.2437999E-001	-6.2445784E-001	5.132419669515009E-001	3.2049796E-004
2	1	0	1	3.811979903701285E+001	-6.1937392E-001	-6.1943609E-001	5.234387498844475E-001	3.2423684E-004
2	1	0	0	3.862039902436663E+001	-6.1436802E-001	-6.1443239E-001	5.334451840705330E-001	3.2776600E-004
2	1	0	1	3.912099901172041E+001	-6.0936189E-001	-6.0942483E-001	5.430898047307158E-001	3.3097240E-004
2	1	0	0	3.962159899907419E+001	-6.0435593E-001	-6.0443270E-001	5.508791440664993E-001	3.3296936E-004
2	1	0	1	4.012219898642797E+001	-5.9934986E-001	-5.9941036E-001	5.612114657483198E-001	3.3639595E-004
2	1	0	0	4.062289897377923E+001	-5.9434295E-001	-5.9440631E-001	5.704824669621846E-001	3.3909836E-004
2	1	0	0	4.112359896113048E+001	-5.8933574E-001	-5.8940148E-001	5.785502802439811E-001	3.4099841E-004
2	1	0	1	4.162419894848426E+001	-5.8432990E-001	-5.8439350E-001	5.879895109761200E-001	3.4361726E-004
2	1	0	0	4.212479893583804E+001	-5.7932377E-001	-5.7939786E-001	5.971059627870225E-001	3.4596192E-004
2	1	0	1	4.262539892319182E+001	-5.7431775E-001	-5.7438904E-001	6.056916754797976E-001	3.4790265E-004
2	1	0	0	4.312599891054560E+001	-5.6931174E-001	-5.6938630E-001	6.123984654228209E-001	3.4869130E-004
2	1	0	1	4.362659889789938E+001	-5.6430566E-001	-5.6436479E-001	6.198108320132869E-001	3.4979940E-004
2	1	0	0	4.412719888525316E+001	-5.5929983E-001	-5.5937529E-001	6.284130509182813E-001	3.5151874E-004
2	1	0	1	4.462779887260695E+001	-5.5429375E-001	-5.5438244E-001	6.370103404222376E-001	3.5314736E-004
2	1	0	0	4.512849885995820E+001	-5.4928678E-001	-5.4935849E-001	6.437979659636781E-001	3.5367589E-004
2	1	0	0	4.562919884730945E+001	-5.4427981E-001	-5.4434502E-001	6.505876755444873E-001	3.5414417E-004
2	1	0	1	4.612979883466323E+001	-5.3927380E-001	-5.3933984E-001	6.573685281356854E-001	3.5454505E-004
2	1	0	0	4.663039882201701E+001	-5.3426772E-001	-5.3434145E-001	6.668006981140469E-001	3.5629925E-004
2	1	0	1	4.713099880937079E+001	-5.2926171E-001	-5.2932596E-001	6.739065917639948E-001	3.5671625E-004
2	1	0	0	4.763159879672457E+001	-5.2425569E-001	-5.2432239E-001	6.795856752033167E-001	3.5632198E-004
2	1	0	1	4.813219878407835E+001	-5.1924968E-001	-5.1932275E-001	6.868181755759446E-001	3.5668031E-004
2	1	0	0	4.863279877143214E+001	-5.1424366E-001	-5.1431835E-001	6.929957878606698E-001	3.5642044E-004
2	1	0	1	4.913339875878592E+001	-5.0923771E-001	-5.0930649E-001	7.000647002097189E-001	3.5654751E-004
2	1	0	1	4.963419874613464E+001	-5.0422972E-001	-5.0428146E-001	7.065802967615493E-001	3.5631534E-004
2	1	0	0	5.013479873348842E+001	-4.9922362E-001	-4.9929050E-001	7.120663533388149E-001	3.5552797E-004
2	1	0	1	5.063539872084220E+001	-4.9421757E-001	-4.9426720E-001	7.179136354062265E-001	3.5484115E-004
2	1	0	0	5.113599870819598E+001	-4.8921153E-001	-4.8926732E-001	7.251306146276666E-001	3.5478271E-004
2	1	0	1	5.163659869554976E+001	-4.8420545E-001	-4.8426378E-001	7.319386689600726E-001	3.5445139E-004
2	1	0	0	5.213719868290355E+001	-4.7919953E-001	-4.7924617E-001	7.366615643432679E-001	3.5304224E-004
2	1	0	1	5.263779867025733E+001	-4.7419354E-001	-4.7423553E-001	7.404962400494739E-001	3.5116964E-004
2	1	0	0	5.313839865761111E+001	-4.6918753E-001	-4.6922335E-001	7.487624511636923E-001	3.5133681E-004
2	1	0	1	5.363899864496489E+001	-4.6418151E-001	-4.6421283E-001	7.540467423334025E-001	3.5003817E-004
2	1	0	1	5.413979863231361E+001	-4.5917359E-001	-4.5922050E-001	7.577117115244965E-001	3.4795675E-004
2	1	0	0	5.464039861966739E+001	-4.5416760E-001	-4.5422006E-001	7.640714720132351E-001	3.4705660E-004
2	1	0	1	5.514099860702117E+001	-4.4916162E-001	-4.4919983E-001	7.692027167146449E-001	3.4552574E-004
2	1	0	0	5.564159859437495E+001	-4.4415557E-001	-4.4420344E-001	7.730388112140609E-001	3.4338649E-004
2	1	0	1	5.614219858172874E+001	-4.3914956E-001	-4.3919533E-001	7.781090557004315E-001	3.4174186E-004
2	1	0	0	5.664279856908252E+001	-4.3414360E-001	-4.3417451E-001	7.843718220784091E-001	3.4055425E-004
2	1	0	1	5.714339855643630E+001	-4.2913759E-001	-4.2916805E-001	7.893400563792863E-001	3.3875954E-004
2	1	0	0	5.764399854379008E+001	-4.2413154E-001	-4.2418748E-001	7.949923318548136E-001	3.3722579E-004
2	1	0	1	5.814469853114133E+001	-4.1912448E-001	-4.1916311E-001	7.977017951817444E-001	3.3436716E-004
2	1	0	1	5.864539851849258E+001	-4.1411749E-001	-4.1415241E-001	8.035268511775371E-001	3.3278260E-004
2	1	0	0	5.914599850584636E+001	-4.0911147E-001	-4.0914041E-001	8.092553628318331E-001	3.3109906E-004
2	1	0	1	5.964659849320014E+001	-4.0410548E-001	-4.0414828E-001	8.119865314514829E-001	3.2816295E-004
2	1	0	0	6.014719848055393E+001	-3.9909938E-001	-3.9915189E-001	8.152644658192820E-001	3.2541435E-004
2	1	0	1	6.064779846790771E+001	-3.9409339E-001	-3.9414072E-001	8.217381823846603E-001	3.2388049E-004
2	1	0	0	6.114839845526149E+001	-3.8908738E-001	-3.8913587E-001	8.245925726066776E-001	3.2087855E-004
2	1	0	1	6.164899844261527E+001	-3.8408139E-001	-3.8413709E-001	8.279926388584151E-001	3.1806270E-004
2	1	0	0	6.214959842996905E+001	-3.7907541E-001	-3.7911972E-001	8.352216611699674E-001	3.1664901E-004
2	1	0	1	6.265029841732030E+001	-3.7406847E-001	-3.7411115E-001	8.370007116708909E-001	3.1313128E-004
2	1	0	1	6.315099840467155E+001	-3.6906144E-001	-3.6911070E-001	8.401260000655988E-001	3.1009951E-004
2	1	0	0	6.365159839202533E+001	-3.6405545E-001	-3.6411533E-001	8.447015564566840E-001	3.0756879E-004
2	1	0	1	6.415219837937912E+001	-3.5904947E-001	-3.5909212E-001	8.488856695049156E-001	3.0482817E-004
2	1	0	0	6.465279836673290E+001	-3.5404342E-001	-3.5408694E-001	8.540309139561479E-001	3.0240120E-004
2	1	0	1	6.515339835408668E+001	-3.4903741E-001	-3.4906945E-001	8.568951054291087E-001	2.9911590E-004
2	1	0	0	6.565399834144046E+001	-3.4403145E-001	-3.4406680E-001	8.580453097042362E-001	2.9522489E-004
2	1	0	1	6.615459832879424E+001	-3.3902535E-001	-3.3906579E-001	8.625466546724816E-001	2.9246006E-004
2	1	0	0	6.665519831614802E+001	-3.3401939E-001	-3.3404496E-001	8.658913354931197E-001	2.8924664E-004
2	1	0	0	6.715599830349674E+001	-3.2901141E-001	-3.2904327E-001	8.699965606773645E-001	2.8626650E-004
2	1	0	1	6.765659829085052E+001	-3.2400540E-001	-3.2406282E-001	8.752245605440478E-001	2.8362774E-004
2	1	0	0	6.815719827820431E+001	-3.1899932E-001	-3.1905353E-001	8.760877734956312E-001	2.7951889E-004
2	1	0	1	6.865779826555809E+001	-3.1399328E-001	-3.1403783E-001	8.800606104033040E-001	2.7637233E-004
2	1	0	0	6.915839825291187E+001	-3.0898726E-001	-3.0904242E-001	8.812373218225997E-001	2.7233970E-004
2	1	0	1	6.965899824026565E+001	-3.0398124E-001	-3.0402446E-001	8.861986775029251E-001	2.6942606E-004
2	1	0	0	7.015959822761943E+001	-2.9897526E-001	-2.9902333E-001	8.894208803383465E-001	2.6595758E-004
2	1	0	1	7.066019821497321E+001	-2.9396918E-001	-2.9400638E-001	8.922582894622964E-001	2.6232962E-004
2	1	0	0	7.116089820232446E+001	-2.8896222E-001	-2.8901100E-001	8.933033981673981E-001	2.5817452E-004
2	1	0	0	7.166159818967571E+001	-2.8395525E-001	-2.8400674E-001	8.975049780020905E-001	2.5489746E-004
2	1	0	1	7.216219817702950E+001	-2.7894926E-001	-2.7898917E-001	8.982115011976184E-001	2.5059129E-004
2	1	0	0	7.266279816438328E+001	-2.7394319E-001	-2.7398613E-001	9.001231298068211E-001	2.4662126E-004
2	1	0	1	7.316339815173706E+001	-2.6893720E-001	-2.6898846E-001	9.034953800998897E-001	2.4302983E-004
2	1	0	0	7.366399813909084E+001	-2.6393116E-001	-2.6397637E-001	9.040362581553811E-001	2.3864421E-004
2	1	0	1	7.416459812644462E+001	-2.5892517E-001	-2.5896144E-001	9.063412056775659E-001	2.3470742E-004
2	1	0	0	7.466519811379840E+001	-2.5391915E-001	-2.5395417E-001	9.094371167888373E-001	2.3095535E-004
2	1	0	1	7.516579810115218E+001	-2.4891311E-001	-2.4895583E-001	9.123439883673443E-001	2.2713335E-004
2	1	0	0	7.566649808850343E+001	-2.4390613E-001	-2.4395874E-001	9.142897703239437E-001	2.2304898E-004
2	1	0	0	7.616719807585469E+001	-2.3889917E-001	-2.3895839E-001	9.141828286677836E-001	2.1845165E-004
2	1	0	1	7.666779806320847E+001	-2.3389313E-001	-2.3395638E-001	9.185832283603839E-001	2.1490840E-004
2	1	0	0	7.716839805056225E+001	-2.2888710E-001	-2.2894794E-001	9.204994163807978E-001	2.1074644E-004
2	1	0	1	7.766899803791603E+001	-2.2388111E-001	-2.2394502E-001	9.224304771926306E-001	2.0657371E-004
2	1	0	0	7.816959802526981E+001	-2.1887508E-001	-2.1893542E-001	9.239515995107599E-001	2.0228572E-004
2	1	0	1	7.867019801262359E+001	-2.1386909E-001	-2.1393484E-001	9.248543035363479E-001	1.9785855E-004
2	1	0	0	7.917079799997737E+001	-2.0886309E-001	-2.0893054E-001	9.243292976547082E-001	1.9312062E-004
2	1	0	1	7.967139798733115E+001	-2.0385706E-001	-2.0392470E-001	9.278717499123879E-001	1.8921596E-004
2	1	0	0	8.017209797468240E+001	-1.9885011E-001	-1.9890372E-001	9.288074111963525E-001	1.8474326E-004
2	1	0	0	8.067279796203366E+001	-1.9384307E-001	-1.9389527E-001	9.319165628154806E-001	1.8069422E-004
2	1	0	1	8.117339794938744E+001	-1.8883704E-001	-1.8888795E-001	9.330096596684569E-001	1.7623429E-004
2	1	0	0	8.167399793674122E+001	-1.8383104E-001	-1.8388458E-001	9.333500604673297E-001	1.7162868E-004
2	1	0	1	8.217459792409500E+001	-1.7882502E-001	-1.7886883E-001	9.324091190693977E-001	1.6677893E-004
2	1	0	0	8.267519791144878E+001	-1.7381901E-001	-1.7386594E-001	9.342811341239337E-001	1.6243967E-004
2	1	0	1	8.317579789880256E+001	-1.6881301E-001	-1.6885379E-001	9.370690839207860E-001	1.5822766E-004
2	1	0	0	8.367639788615634E+001	-1.6380702E-001	-1.6385639E-001	9.370381157656968E-001	1.5353967E-004
2	1	0	1	8.417699787351012E+001	-1.5880100E-001	-1.5884210E-001	9.392412790494165E-001	1.4919105E-004
2	1	0	1	8.467779786085885E+001	-1.5379302E-001	-1.5381579E-001	9.419048687155946E-001	1.4487984E-004
2	1	0	0	8.517839784821263E+001	-1.4878699E-001	-1.4881019E-001	9.405635393352227E-001	1.3996544E-004
2	1	0	1	8.567899783556641E+001	-1.4378095E-001	-1.4381438E-001	9.398074775233003E-001	1.3515784E-004
2	1	0	0	8.617959782292019E+001	-1.3877495E-001	-1.3879170E-001	9.424007219782844E-001	1.3079739E-004
2	1	0	1	8.668019781027397E+001	-1.3376895E-001	-1.3378997E-001	9.445252055372944E-001	1.2636800E-004
2	1	0	0	8.718079779762775E+001	-1.2876289E-001	-1.2878659E-001	9.431300833299532E-001	1.2146251E-004
2	1	0	1	8.768139778498153E+001	-1.2375686E-001	-1.2377766E-001	9.449096450396945E-001	1.1695870E-004
2	1	0	0	8.818199777233531E+001	-1.1875083E-001	-1.1877373E-001	9.448135039925205E-001	1.1221902E-004
2	1	0	1	8.868269775968656E+001	-1.1374385E-001	-1.1375649E-001	9.448150645989237E-001	1.0747884E-004
2	1	0	1	8.918339774703782E+001	-1.0873691E-001	-1.0876850E-001	9.466217489076172E-001	1.0296263E-004
2	1	0	0	8.968399773439160E+001	-1.0373087E-001	-1.0375516E-001	9.501346187634088E-001	9.8581368E-005
2	1	0	1	9.018459772174538E+001	-9.8724857E-002	-9.8724790E-002	9.521359927059283E-001	9.3999428E-005
2	1	0	0	9.068519770909916E+001	-9.3718834E-002	-9.3715087E-002	9.532546259024439E-001	8.9334339E-005
2	1	0	1	9.118579769645294E+001	-8.8712804E-002	-8.8747665E-002	9.516087010599836E-001	8.4453051E-005
2	1	0	0	9.168639768380672E+001	-8.3706811E-002	-8.3731219E-002	9.520041448616627E-001	7.9712467E-005
2	1	0	1	9.218699767116050E+001	-7.8700818E-002	-7.8722060E-002	9.543993587584616E-001	7.5132280E-005
2	1	0	0	9.268759765851428E+001	-7.3694743E-002	-7.3724806E-002	9.544854965864573E-001	7.0369257E-005
2	1	0	1	9.318829764586553E+001	-6.8687782E-002	-6.8712004E-002	9.547534684390220E-001	6.5603024E-005
2	1	0	1	9.368899763321679E+001	-6.3680813E-002	-6.3699022E-002	9.543643707633365E-001	6.0792077E-005
2	1	0	0	9.418959762057057E+001	-5.8674775E-002	-5.8682684E-002	9.546875109256590E-001	5.6023626E-005
2	1	0	1	9.469019760792435E+001	-5.3668763E-002	-5.3684290E-002	9.551572603647891E-001	5.1276940E-005
2	1	0	0	9.519079759527813E+001	-4.8662748E-002	-4.8687249E-002	9.563089757736600E-001	4.6560053E-005
2	1	0	1	9.569139758263191E+001	-4.3656714E-002	-4.3679677E-002	9.588332399224750E-001	4.1881525E-005
2	1	0	0	9.619199756998569E+001	-3.8650710E-002	-3.8679890E-002	9.577757887140628E-001	3.7046662E-005
2	1	0	1	9.669259755733947E+001	-3.3644713E-002	-3.3673279E-002	9.589525058065185E-001	3.2291075E-005
2	1	0	0	9.719319754469325E+001	-2.8638715E-002	-2.8656101E-002	9.586425143314887E-001	2.7470956E-005
2	1	0	1	9.769389753204450E+001	-2.3631711E-002	-2.3653427E-002	9.567186225550895E-001	2.2629674E-005
2	1	0	1	9.819459751939576E+001	-1.8624725E-002	-1.8657513E-002	9.600170137467154E-001	1.7911530E-005
2	1	0	0	9.869519750674954E+001	-1.3618704E-002	-1.3652861E-002	9.599732908151246E-001	1.3106382E-005
2	1	0	1	9.919579749410332E+001	-8.6126672E-003	-8.6527262E-003	9.580916167973359E-001	8.2901042E-006
2	1	0	0	9.969639748145710E+001	-3.6066703E-003	-3.6513957E-003	9.601367284445548E-001	3.5058390E-006
2	1	0	1	1.001969974688109E+002	1.3993231E-003	1.3474879E-003	9.618194554313257E-001	1.2960401E-006
2	1	0	0	1.006975974561647E+002	6.4053396E-003	6.3549532E-003	9.636579928068603E-001	6.1240016E-006
2	1	0	1	1.011981974435184E+002	1.1411333E-002	1.1361768E-002	9.628825597624733E-001	1.0940049E-005
2	1	0	0	1.016987974308722E+002	1.6417328E-002	1.6386012E-002	9.634830565971786E-001	1.5787644E-005
2	1	0	0	1.021995974182209E+002	2.1425279E-002	2.1382697E-002	9.638205719860782E-001	2.0609083E-005
2	1	0	1	1.027001974055747E+002	2.6431259E-002	2.6395857E-002	9.627595579359294E-001	2.5412864E-005
2	1	0	0	1.032007973929285E+002	3.1437237E-002	3.1404652E-002	9.625495431898496E-001	3.0228533E-005
2	1	0	1	1.037013973802823E+002	3.6443252E-002	3.6401413E-002	9.648387301032502E-001	3.5121495E-005
2	1	0	0	1.042019973676361E+002	4.1449241E-002	4.1406021E-002	9.632837942547443E-001	3.9885748E-005
2	1	0	1	1.047025973549898E+002	4.6455253E-002	4.6406936E-002	9.622340552003461E-001	4.4654334E-005
2	1	0	0	1.052031973423436E+002	5.1461257E-002	5.1435504E-002	9.631221307038341E-001	4.9538674E-005
2	1	0	1	1.057037973296974E+002	5.6467231E-002	5.6443598E-002	9.653901393253443E-001	5.4490094E-005
2	1	0	0	1.062044973170487E+002	6.1474189E-002	6.1433189E-002	9.642796697343901E-001	5.9238773E-005
2	1	0	0	1.067051973043999E+002	6.6481180E-002	6.6455796E-002	9.629889144007272E-001	6.3996195E-005
2	1	0	1	1.072057972917537E+002	7.1487144E-002	7.1461305E-002	9.650282626817059E-001	6.8962181E-005
2	1	0	0	1.077063972791075E+002	7.6493181E-002	7.6469734E-002	9.671823962848283E-001	7.3960182E-005
2	1	0	1	1.082069972664613E+002	8.1499159E-002	8.1477925E-002	9.643081306786039E-001	7.8569828E-005
2	1	0	0	1.087075972538150E+002	8.6505190E-002	8.6489439E-002	9.644634135747379E-001	8.3415900E-005
2	1	0	1	1.092081972411688E+002	9.1511168E-002	9.1481522E-002	9.670767843872787E-001	8.8469656E-005
2	1	0	0	1.097087972285226E+002	9.6517153E-002	9.6490972E-002	9.669576073574149E-001	9.3302682E-005
2	1	0	1	1.100066972209970E+002	9.9496074E-002	9.9470504E-002	9.676007453089834E-001	9.6247735E-005
2	1	0	0	1.100545972197870E+002	9.9997252E-002	1.0005149E-001	9.679182214396342E-001	9.6841664E-005