EC-Lab ASCII FILE
Nb header lines : 55                          

I-V Characterization

Run on channel : 1 (SN 6514)
User : 
CE vs. WE compliance from -10 V to 10 V
Electrode connection : standard
Ewe ctrl range : min = -1.10 V, max = 0.20 V
Safety Limits :
	Do not start on E overload
Acquisition started on : 06/15/2016 19:25:03
Saved on :
	File : B125-G54-UN-G-D1GB-C11 FW 10mVs_C01.mpr
	Directory : E:\EC-Lab measurements\B125-G54-UN-G-D1GB\
	Host : 10.0.2.15
Device : VSP (SN 0295)
Address : USB
EC-Lab for windows v11.01 (software)
Internet server v11.00 (firmware)
Command interpretor v11.00 (firmware)
Electrode material : 
Initial state : 
Electrolyte : 
Comments : 
Electrode surface area : 0.001 cm²
Characteristic mass : 0.001 g
Equivalent Weight : 0.000 g/eq.
Density : 0.000 g/cm3
tR (h:m:s)          0:00:0.0000         
dER/dt (mV/h)       0.0                 
dER (mV)            0                   
dtR (s)             0.0000              
dE/dt               10.000              
dE/dt unit          mV/s                
Ei (V)              0.100               
vs.                 Ref                 
EL (V)              -1.000              
vs.                 Ref                 
record              <I>                 
dI                  0.000               
unit dI             µA                  
tI (s)              0.1000              
step percent        100                 
N                   100                 
E range min (V)     -1.100              
E range max (V)     0.200               
I Range             Auto                
I Range min         Unset               
I Range max         Unset               
I Range init        Unset               
Bandwidth           5                   

mode	ox/red	error	control changes	time/s	control/V	Ewe/V	<I>/mA	P/W
2	0	0	0	1.449999963369919E-001	9.9096134E-002	9.8981999E-002	1.178573493957519E+000	1.1665756E-004
2	0	0	1	3.977999899507267E-001	9.6567996E-002	9.6492559E-002	1.164939388787973E+000	1.1240798E-004
2	0	0	0	8.983999773045070E-001	9.1562025E-002	9.1488302E-002	1.133541991074832E+000	1.0370583E-004
2	0	0	1	1.398999964658287E+000	8.6556040E-002	8.6471893E-002	1.100796644699525E+000	9.5187970E-005
2	0	0	0	1.899699952009541E+000	8.1549041E-002	8.1482127E-002	1.079786253475994E+000	8.7983281E-005
2	0	0	0	2.400399939360796E+000	7.6542102E-002	7.6465614E-002	1.065103105380377E+000	8.1443766E-005
2	0	0	1	2.900999926714576E+000	7.1536116E-002	7.1453273E-002	1.051770924660783E+000	7.5152479E-005
2	0	0	0	3.401599914068356E+000	6.6530131E-002	6.6454932E-002	1.040545109135345E+000	6.9149355E-005
2	0	0	1	3.902199901422136E+000	6.1524101E-002	6.1463315E-002	1.034522852955220E+000	6.3585205E-005
2	0	0	0	4.402799888775917E+000	5.6518085E-002	5.6451134E-002	1.030351873022921E+000	5.8164533E-005
2	0	0	1	4.903399876129697E+000	5.1512111E-002	5.1440086E-002	1.025759875949525E+000	5.2765175E-005
2	0	0	0	5.403999863483477E+000	4.6506125E-002	4.6426125E-002	1.017895529629392E+000	4.7256945E-005
2	0	0	1	5.904599850837258E+000	4.1500106E-002	4.1418150E-002	1.013896751223012E+000	4.1993728E-005
2	0	0	0	6.405299838188512E+000	3.6493141E-002	3.6414120E-002	1.011569607372137E+000	3.6835416E-005
2	0	0	0	6.905999825539766E+000	3.1486209E-002	3.1394538E-002	1.008442381561402E+000	3.1659583E-005
2	0	0	1	7.406599812893546E+000	2.6480207E-002	2.6398368E-002	1.002944228143005E+000	2.6476091E-005
2	0	0	0	7.907199800247326E+000	2.1474186E-002	2.1390952E-002	1.000553269092997E+000	2.1402788E-005
2	0	0	1	8.407799787601107E+000	1.6468218E-002	1.6399810E-002	9.981641197601248E-001	1.6369702E-005
2	0	0	0	8.908399774954887E+000	1.1462180E-002	1.1375075E-002	9.944417850002552E-001	1.1311850E-005
2	0	0	1	9.408999762308667E+000	6.4562061E-003	6.3738148E-003	9.883344111837711E-001	6.2994604E-006
2	0	0	0	9.909599749662448E+000	1.4497692E-003	1.3582208E-003	9.851908422543474E-001	1.3381067E-006
2	0	0	1	1.041019973701623E+001	-3.5557766E-003	-3.6295734E-003	9.836414834385625E-001	3.5701989E-006
2	0	0	0	1.091089972436748E+001	-8.5627632E-003	-8.6401645E-003	9.798491825773095E-001	8.4660578E-006
2	0	0	0	1.141159971171874E+001	-1.3569770E-002	-1.3655743E-002	9.737614133674519E-001	1.3297436E-005
2	0	0	1	1.191219969907252E+001	-1.8575810E-002	-1.8625675E-002	9.710469177455781E-001	1.8086404E-005
2	0	0	0	1.241279968642630E+001	-2.3581808E-002	-2.3652609E-002	9.690006481979978E-001	2.2919394E-005
2	0	0	1	1.291339967378008E+001	-2.8587800E-002	-2.8657598E-002	9.636417360290430E-001	2.7615657E-005
2	0	0	0	1.341399966113386E+001	-3.3593837E-002	-3.3680957E-002	9.608648908216395E-001	3.2362848E-005
2	0	0	1	1.391459964848764E+001	-3.8599845E-002	-3.8653944E-002	9.592363597975453E-001	3.7078269E-005
2	0	0	0	1.441519963584142E+001	-4.3605853E-002	-4.3673534E-002	9.565175527802037E-001	4.1774503E-005
2	0	0	1	1.491579962319520E+001	-4.8611853E-002	-4.8687004E-002	9.517858128769250E-001	4.6339599E-005
2	0	0	1	1.541659961054393E+001	-5.3619850E-002	-5.3691044E-002	9.473027654312332E-001	5.0861676E-005
2	0	0	0	1.591719959789771E+001	-5.8625840E-002	-5.8693718E-002	9.460467121246576E-001	5.5526998E-005
2	0	0	1	1.641779958525149E+001	-6.3631840E-002	-6.3705206E-002	9.416557846323137E-001	5.9988375E-005
2	0	0	0	1.691839957260527E+001	-6.8637885E-002	-6.8704106E-002	9.385839013459698E-001	6.4484571E-005
2	0	0	1	1.741899955995905E+001	-7.3643900E-002	-7.3709369E-002	9.336824919417799E-001	6.8821144E-005
2	0	0	0	1.791959954731283E+001	-7.8649938E-002	-7.8718476E-002	9.311902779000079E-001	7.3301882E-005
2	0	0	1	1.842019953466661E+001	-8.3655953E-002	-8.3731800E-002	9.280800778233504E-001	7.7709818E-005
2	0	0	0	1.892079952202039E+001	-8.8661961E-002	-8.8747472E-002	9.250519439635863E-001	8.2096019E-005
2	0	0	1	1.942149950937164E+001	-9.3668915E-002	-9.3734138E-002	9.193377564860192E-001	8.6173335E-005
2	0	0	1	1.992219949672290E+001	-9.8675951E-002	-9.8728776E-002	9.170588316808623E-001	9.0540096E-005
2	0	0	0	2.042279948407668E+001	-1.0368194E-001	-1.0375845E-001	9.144940255964444E-001	9.4886476E-005
2	0	0	1	2.092339947143046E+001	-1.0868797E-001	-1.0875604E-001	9.105696089987595E-001	9.9029945E-005
2	0	0	0	2.142399945878424E+001	-1.1369399E-001	-1.1375391E-001	9.067574839189216E-001	1.0314721E-004
2	0	0	1	2.192459944613802E+001	-1.1869998E-001	-1.1876166E-001	9.046970133721794E-001	1.0744332E-004
2	0	0	0	2.242519943349180E+001	-1.2370600E-001	-1.2377764E-001	8.996356649721289E-001	1.1135478E-004
2	0	0	1	2.292579942084558E+001	-1.2871203E-001	-1.2877385E-001	8.947464984206235E-001	1.1521995E-004
2	0	0	0	2.342639940819936E+001	-1.3371804E-001	-1.3379203E-001	8.897740114101023E-001	1.1904467E-004
2	0	0	1	2.392709939555061E+001	-1.3872500E-001	-1.3878249E-001	8.879227047266244E-001	1.2322812E-004
2	0	0	1	2.442779938290187E+001	-1.4373203E-001	-1.4380608E-001	8.845225275759283E-001	1.2719972E-004
2	0	0	0	2.492839937025565E+001	-1.4873804E-001	-1.4881633E-001	8.803475945786534E-001	1.3101011E-004
2	0	0	1	2.542899935760943E+001	-1.5374410E-001	-1.5382227E-001	8.793174528080785E-001	1.3525861E-004
2	0	0	0	2.592959934496321E+001	-1.5875009E-001	-1.5884167E-001	8.745440104354740E-001	1.3891404E-004
2	0	0	1	2.643019933231699E+001	-1.6375609E-001	-1.6384313E-001	8.672060081602702E-001	1.4208574E-004
2	0	0	0	2.693079931967077E+001	-1.6876210E-001	-1.6885199E-001	8.645283282236971E-001	1.4597732E-004
2	0	0	1	2.743139930702455E+001	-1.7376815E-001	-1.7386717E-001	8.609792305864428E-001	1.4969602E-004
2	0	0	0	2.793199929437833E+001	-1.7877416E-001	-1.7887600E-001	8.558903455966895E-001	1.5309824E-004
2	0	0	1	2.843269928172958E+001	-1.8378113E-001	-1.8389536E-001	8.534633810348335E-001	1.5694796E-004
2	0	0	1	2.893339926908084E+001	-1.8878813E-001	-1.8889420E-001	8.481993760286510E-001	1.6021993E-004
2	0	0	0	2.943399925643462E+001	-1.9379413E-001	-1.9390893E-001	8.437251186867591E-001	1.6360583E-004
2	0	0	1	2.993459924378840E+001	-1.9880015E-001	-1.9890289E-001	8.425179251377521E-001	1.6757924E-004
2	0	0	0	3.043519923114218E+001	-2.0380621E-001	-2.0393273E-001	8.366518607426874E-001	1.7062070E-004
2	0	0	1	3.093579921849596E+001	-2.0881216E-001	-2.0892417E-001	8.320115820861658E-001	1.7382733E-004
2	0	0	0	3.143639920584974E+001	-2.1381824E-001	-2.1393569E-001	8.297901515422623E-001	1.7752172E-004
2	0	0	1	3.193699919320352E+001	-2.1882422E-001	-2.1894252E-001	8.261320561334415E-001	1.8087543E-004
2	0	0	0	3.243769918055477E+001	-2.2383118E-001	-2.2393920E-001	8.201296391347839E-001	1.8365917E-004
2	0	0	0	3.293839916790603E+001	-2.2883818E-001	-2.2895142E-001	8.163703086179475E-001	1.8690915E-004
2	0	0	1	3.343899915525981E+001	-2.3384421E-001	-2.3395394E-001	8.117223370650813E-001	1.8990564E-004
2	0	0	0	3.393959914261359E+001	-2.3885021E-001	-2.3894794E-001	8.081000455900951E-001	1.9309385E-004
2	0	0	1	3.444019912996737E+001	-2.4385624E-001	-2.4397685E-001	8.024441180852389E-001	1.9577779E-004
2	0	0	0	3.494079911732115E+001	-2.4886225E-001	-2.4894486E-001	7.978194399115148E-001	1.9861305E-004
2	0	0	1	3.544139910467493E+001	-2.5386825E-001	-2.5395164E-001	7.939128630176562E-001	2.0161548E-004
2	0	0	0	3.594199909202871E+001	-2.5887424E-001	-2.5894901E-001	7.877898989551220E-001	2.0399742E-004
2	0	0	1	3.644259907938249E+001	-2.6388031E-001	-2.6396078E-001	7.851095814933140E-001	2.0723813E-004
2	0	0	0	3.694329906673374E+001	-2.6888725E-001	-2.6897839E-001	7.791580070506532E-001	2.0957667E-004
2	0	0	0	3.744399905408500E+001	-2.7389428E-001	-2.7398378E-001	7.736548936377403E-001	2.1196889E-004
2	0	0	1	3.794459904143878E+001	-2.7890033E-001	-2.7898249E-001	7.689328388679044E-001	2.1451880E-004
2	0	0	0	3.844519902879256E+001	-2.8390631E-001	-2.8399998E-001	7.637687380929377E-001	2.1691031E-004
2	0	0	1	3.894579901614634E+001	-2.8891230E-001	-2.8899571E-001	7.596162279674878E-001	2.1952583E-004
2	0	0	0	3.944639900350012E+001	-2.9391834E-001	-2.9400897E-001	7.523567601955499E-001	2.2119963E-004
2	0	0	1	3.994699899085390E+001	-2.9892442E-001	-2.9901612E-001	7.463657240104116E-001	2.2317538E-004
2	0	0	0	4.044759897820768E+001	-3.0393046E-001	-3.0402237E-001	7.402343191651579E-001	2.2504780E-004
2	0	0	1	4.094819896556146E+001	-3.0893651E-001	-3.0903587E-001	7.352700462916477E-001	2.2722481E-004
2	0	0	0	4.144889895291271E+001	-3.1394339E-001	-3.1403491E-001	7.282477842712307E-001	2.2869522E-004
2	0	0	0	4.194959894026397E+001	-3.1895047E-001	-3.1904429E-001	7.215338570287848E-001	2.3020126E-004
2	0	0	1	4.245019892761775E+001	-3.2395646E-001	-3.2404891E-001	7.163164978877852E-001	2.3212157E-004
2	0	0	0	4.295079891497153E+001	-3.2896248E-001	-3.2902977E-001	7.103169932049180E-001	2.3371543E-004
2	0	0	1	4.345139890232531E+001	-3.3396849E-001	-3.3402523E-001	7.024786990831942E-001	2.3464562E-004
2	0	0	0	4.395199888967909E+001	-3.3897448E-001	-3.3905247E-001	6.963965871881015E-001	2.3611498E-004
2	0	0	1	4.445259887703287E+001	-3.4398049E-001	-3.4404874E-001	6.886442548808365E-001	2.3692718E-004
2	0	0	0	4.495319886438665E+001	-3.4898654E-001	-3.4907380E-001	6.802644642765801E-001	2.3746250E-004
2	0	0	1	4.545379885174043E+001	-3.5399249E-001	-3.5407627E-001	6.737648674326202E-001	2.3856414E-004
2	0	0	1	4.595459883908916E+001	-3.5900047E-001	-3.5909641E-001	6.663126663126047E-001	2.3927049E-004
2	0	0	0	4.645519882644294E+001	-3.6400646E-001	-3.6410648E-001	6.566333575560392E-001	2.3908446E-004
2	0	0	1	4.695579881379672E+001	-3.6901248E-001	-3.6910743E-001	6.494678087965085E-001	2.3972339E-004
2	0	0	0	4.745639880115050E+001	-3.7401849E-001	-3.7410349E-001	6.410705473690805E-001	2.3982672E-004
2	0	0	1	4.795699878850428E+001	-3.7902457E-001	-3.7911192E-001	6.333758351001348E-001	2.4012032E-004
2	0	0	0	4.845759877585806E+001	-3.8403058E-001	-3.8411888E-001	6.230763427038379E-001	2.3933539E-004
2	0	0	1	4.895819876321184E+001	-3.8903660E-001	-3.8912559E-001	6.147186956504314E-001	2.3920277E-004
2	0	0	0	4.945879875056562E+001	-3.9404267E-001	-3.9414459E-001	6.059216436566430E-001	2.3882074E-004
2	0	0	1	4.995949873791687E+001	-3.9904964E-001	-3.9916441E-001	5.948009347035876E-001	2.3742336E-004
2	0	0	1	5.046019872526813E+001	-4.0405661E-001	-4.0415394E-001	5.857312489196076E-001	2.3672559E-004
2	0	0	0	5.096079871262191E+001	-4.0906262E-001	-4.0914240E-001	5.773608463509810E-001	2.3622281E-004
2	0	0	1	5.146139869997569E+001	-4.1406861E-001	-4.1415358E-001	5.659877688383674E-001	2.3440586E-004
2	0	0	0	5.196199868732947E+001	-4.1907459E-001	-4.1915515E-001	5.543277637050199E-001	2.3234934E-004
2	0	0	1	5.246259867468325E+001	-4.2408061E-001	-4.2416263E-001	5.447068966784148E-001	2.3104431E-004
2	0	0	0	5.296319866203703E+001	-4.2908666E-001	-4.2916122E-001	5.328454978259269E-001	2.2867662E-004
2	0	0	1	5.346379864939081E+001	-4.3409261E-001	-4.3417850E-001	5.213848952709967E-001	2.2637412E-004
2	0	0	0	5.396439863674459E+001	-4.3909863E-001	-4.3918699E-001	5.106544954312557E-001	2.2427281E-004
2	0	0	1	5.446509862409584E+001	-4.4410557E-001	-4.4417733E-001	4.972678414016505E-001	2.2087510E-004
2	0	0	1	5.496579861144710E+001	-4.4911259E-001	-4.4919628E-001	4.862842732897761E-001	2.1843708E-004
2	0	0	0	5.548389859835879E+001	-4.5429361E-001	-4.5433259E-001	4.728271207174028E-001	2.1482077E-004
2	0	0	0	5.600199858527048E+001	-4.5947459E-001	-4.5950720E-001	4.591390518620060E-001	2.1097770E-004
2	0	0	1	5.650259857262427E+001	-4.6448067E-001	-4.6452615E-001	4.469481403946113E-001	2.0761910E-004
2	0	0	0	5.700319855997805E+001	-4.6948671E-001	-4.6952692E-001	4.324953104805864E-001	2.0306819E-004
2	0	0	1	5.750379854733183E+001	-4.7449276E-001	-4.7453320E-001	4.188046774393035E-001	1.9873673E-004
2	0	0	0	5.800449853468308E+001	-4.7949967E-001	-4.7954789E-001	4.055072721820046E-001	1.9446015E-004
2	0	0	0	5.850519852203433E+001	-4.8450673E-001	-4.8456466E-001	3.908866799675241E-001	1.8940987E-004
2	0	0	1	5.900579850938811E+001	-4.8951274E-001	-4.8957151E-001	3.767173227817731E-001	1.8443007E-004
2	0	0	0	5.950639849674189E+001	-4.9451873E-001	-4.9457762E-001	3.622369835588821E-001	1.7915430E-004
2	0	0	1	6.000699848409567E+001	-4.9952471E-001	-4.9957848E-001	3.464446643792793E-001	1.7307630E-004
2	0	0	0	6.050759847144946E+001	-5.0453073E-001	-5.0458741E-001	3.305009589599930E-001	1.6676662E-004
2	0	0	1	6.100819845880324E+001	-5.0953674E-001	-5.0960153E-001	3.149342899893695E-001	1.6049099E-004
2	0	0	0	6.150879844615702E+001	-5.1454276E-001	-5.1460385E-001	2.995953317898201E-001	1.5417291E-004
2	0	0	1	6.200939843351080E+001	-5.1954877E-001	-5.1960647E-001	2.835331995931698E-001	1.4732569E-004
2	0	0	0	6.251009842086205E+001	-5.2455574E-001	-5.2461398E-001	2.672293758540762E-001	1.4019226E-004
2	0	0	0	6.301079840821330E+001	-5.2956277E-001	-5.2961320E-001	2.498748421821735E-001	1.3233701E-004
2	0	0	1	6.351139839556708E+001	-5.3456885E-001	-5.3463268E-001	2.325356499709610E-001	1.2432116E-004
2	0	0	0	6.401199838292087E+001	-5.3957480E-001	-5.3963947E-001	2.156073715334277E-001	1.1635025E-004
2	0	0	1	6.451259837027465E+001	-5.4458082E-001	-5.4465389E-001	1.983859611744760E-001	1.0805169E-004
2	0	0	0	6.501319835762843E+001	-5.4958677E-001	-5.4963785E-001	1.806976767016957E-001	9.9318284E-005
2	0	0	1	6.551379834498221E+001	-5.5459285E-001	-5.5467337E-001	1.624045620377781E-001	9.0081485E-005
2	0	0	0	6.601439833233599E+001	-5.5959892E-001	-5.5967313E-001	1.439657535090031E-001	8.0573765E-005
2	0	0	1	6.651509831968724E+001	-5.6460589E-001	-5.6466138E-001	1.257805808232439E-001	7.1023438E-005
2	0	0	1	6.701579830703849E+001	-5.6961292E-001	-5.6967521E-001	1.069099996484839E-001	6.0903978E-005
2	0	0	0	6.751639829439227E+001	-5.7461900E-001	-5.7469863E-001	8.804631332500712E-002	5.0600094E-005
2	0	0	1	6.801699828174606E+001	-5.7962507E-001	-5.7968748E-001	6.945499209014161E-002	4.0262188E-005
2	0	0	0	6.853509826865775E+001	-5.8480597E-001	-5.8485997E-001	4.897706959421514E-002	2.8644727E-005
2	0	0	0	6.905319825556944E+001	-5.8998704E-001	-5.9004766E-001	2.875068612141463E-002	1.6964275E-005
2	0	0	1	6.955379824292322E+001	-5.9499305E-001	-5.9504849E-001	9.229794750045928E-003	5.4921752E-006
2	0	0	0	7.005449823027448E+001	-6.0000008E-001	-6.0005629E-001	-1.104536864493799E-002	6.6278430E-006
2	0	0	0	7.055519821762573E+001	-6.0500699E-001	-6.0506678E-001	-3.131294918882743E-002	1.8946424E-005
2	0	0	1	7.105579820497951E+001	-6.1001307E-001	-6.1006963E-001	-5.125806712492609E-002	3.1270989E-005
2	0	0	0	7.155639819233329E+001	-6.1501896E-001	-6.1509562E-001	-7.147352989061462E-002	4.3963057E-005
2	0	0	1	7.207449817924498E+001	-6.2019998E-001	-6.2027150E-001	-9.308136550284174E-002	5.7735717E-005
2	0	0	1	7.259259816615668E+001	-6.2538093E-001	-6.2546283E-001	-1.148141750004126E-001	7.1811999E-005
2	0	0	0	7.309319815351046E+001	-6.3038707E-001	-6.3045579E-001	-1.356375134089087E-001	8.5513457E-005
2	0	0	1	7.359389814086171E+001	-6.3539398E-001	-6.3547438E-001	-1.565432225785248E-001	9.9479206E-005
2	0	0	1	7.409459812821297E+001	-6.4040118E-001	-6.4045155E-001	-1.779132172271808E-001	1.1394479E-004
2	0	0	0	7.459519811556675E+001	-6.4540702E-001	-6.4544392E-001	-1.991405071202026E-001	1.2853403E-004
2	0	0	1	7.509579810292053E+001	-6.5041322E-001	-6.5046388E-001	-2.207351001593523E-001	1.4358021E-004
2	0	0	0	7.559639809027431E+001	-6.5541911E-001	-6.5545255E-001	-2.423998399672591E-001	1.5888159E-004
2	0	0	1	7.609699807762809E+001	-6.6042525E-001	-6.6048050E-001	-2.640882369266233E-001	1.7442513E-004
2	0	0	0	7.659759806498187E+001	-6.6543126E-001	-6.6546780E-001	-2.859216106137756E-001	1.9027162E-004
2	0	0	1	7.709819805233565E+001	-6.7043734E-001	-6.7048001E-001	-3.078715659955105E-001	2.0642173E-004
2	0	0	0	7.759879803968943E+001	-6.7544335E-001	-6.7548054E-001	-3.299253862725376E-001	2.2285817E-004
2	0	0	1	7.809949802704068E+001	-6.8045014E-001	-6.8049204E-001	-3.522968735012073E-001	2.3973522E-004
2	0	0	1	7.860019801439194E+001	-6.8545729E-001	-6.8549341E-001	-3.745556497624989E-001	2.5675542E-004
2	0	0	0	7.910079800174572E+001	-6.9046313E-001	-6.9050342E-001	-3.971760078194224E-001	2.7425139E-004
2	0	0	1	7.960139798909950E+001	-6.9546926E-001	-6.9549620E-001	-4.198592918859063E-001	2.9201055E-004
2	0	0	0	8.010199797645328E+001	-7.0047516E-001	-7.0051485E-001	-4.425514120704470E-001	3.1001383E-004
2	0	0	1	8.060259796380706E+001	-7.0548129E-001	-7.0552945E-001	-4.649831314854032E-001	3.2805928E-004
2	0	0	0	8.110319795116084E+001	-7.1048719E-001	-7.1053803E-001	-4.880167868510992E-001	3.4675447E-004
2	0	0	1	8.160379793851462E+001	-7.1549332E-001	-7.1553814E-001	-5.109110078833172E-001	3.6557633E-004
2	0	0	0	8.210439792586840E+001	-7.2049916E-001	-7.2052616E-001	-5.336585820477868E-001	3.8451498E-004
2	0	0	0	8.260519791321713E+001	-7.2550738E-001	-7.2553390E-001	-5.570467695567630E-001	4.0415631E-004
2	0	0	1	8.310579790057091E+001	-7.3051322E-001	-7.3054612E-001	-5.804259480914329E-001	4.2402791E-004
2	0	0	0	8.360639788792469E+001	-7.3551935E-001	-7.3553103E-001	-6.038081854805046E-001	4.4411965E-004
2	0	0	1	8.410699787527847E+001	-7.4052525E-001	-7.4055487E-001	-6.268987064568003E-001	4.6425289E-004
2	0	0	0	8.460759786263225E+001	-7.4553138E-001	-7.4556458E-001	-6.505630196098995E-001	4.8503675E-004
2	0	0	1	8.510819784998603E+001	-7.5053746E-001	-7.5058705E-001	-6.746098346177996E-001	5.0635339E-004
2	0	0	0	8.560879783733981E+001	-7.5554335E-001	-7.5558311E-001	-6.983239559694097E-001	5.2764179E-004
2	0	0	1	8.610939782469359E+001	-7.6054949E-001	-7.6059830E-001	-7.220880230028843E-001	5.4921891E-004
2	0	0	0	8.661009781204484E+001	-7.6555634E-001	-7.6560563E-001	-7.459112120572744E-001	5.7107385E-004
2	0	0	0	8.711079779939610E+001	-7.7056348E-001	-7.7061242E-001	-7.705300398012769E-001	5.9378002E-004
2	0	0	1	8.761139778674988E+001	-7.7556926E-001	-7.7562362E-001	-7.946745439531711E-001	6.1636837E-004
2	0	0	0	8.811199777410366E+001	-7.8057545E-001	-7.8063291E-001	-8.190356790938580E-001	6.3936622E-004
2	0	0	1	8.861259776145744E+001	-7.8558129E-001	-7.8562266E-001	-8.430754363359778E-001	6.6233915E-004
2	0	0	0	8.911319774881122E+001	-7.9058737E-001	-7.9063874E-001	-8.684787147553381E-001	6.8665290E-004
2	0	0	1	8.961379773616500E+001	-7.9559320E-001	-7.9565370E-001	-8.930905643845417E-001	7.1059080E-004
2	0	0	0	9.011439772351878E+001	-8.0059946E-001	-8.0065310E-001	-9.180137088215528E-001	7.3501054E-004
2	0	0	1	9.061499771087256E+001	-8.0560541E-001	-8.0565780E-001	-9.426472362730500E-001	7.5945113E-004
2	0	0	0	9.111569769822381E+001	-8.1061256E-001	-8.1067502E-001	-9.678293488244012E-001	7.8459509E-004
2	0	0	0	9.161639768557507E+001	-8.1561935E-001	-8.1567901E-001	-9.941208064164258E-001	8.1088347E-004
2	0	0	1	9.213449767248676E+001	-8.2080042E-001	-8.2086003E-001	-1.020445002790793E+000	8.3764252E-004
2	0	0	1	9.265259765939845E+001	-8.2598138E-001	-8.2611090E-001	-1.046637402156928E+000	8.6463854E-004
2	0	0	0	9.315319764675223E+001	-8.3098757E-001	-8.3111030E-001	-1.072690917447726E+000	8.9152448E-004
2	0	0	1	9.365379763410601E+001	-8.3599347E-001	-8.3611602E-001	-1.099341723022869E+000	9.1917720E-004
2	0	0	0	9.415439762145979E+001	-8.4099948E-001	-8.4109038E-001	-1.124921832597838E+000	9.4616093E-004
2	0	0	1	9.465509760881105E+001	-8.4600663E-001	-8.4611142E-001	-1.152225226613867E+000	9.7491092E-004
2	0	0	1	9.515579759616230E+001	-8.5101336E-001	-8.5113269E-001	-1.179490251956338E+000	1.0039028E-003
2	0	0	0	9.565639758351608E+001	-8.5601968E-001	-8.5613000E-001	-1.205811617839996E+000	1.0323315E-003
2	0	0	1	9.615699757086986E+001	-8.6102545E-001	-8.6113572E-001	-1.233183583210881E+000	1.0619385E-003
2	0	0	0	9.665759755822364E+001	-8.6603171E-001	-8.6614740E-001	-1.260627796710025E+000	1.0918895E-003
2	0	0	1	9.715819754557742E+001	-8.7103742E-001	-8.7114406E-001	-1.287545378180862E+000	1.1216375E-003
2	0	0	0	9.765879753293120E+001	-8.7604368E-001	-8.7614536E-001	-1.315866285131072E+000	1.1528902E-003
2	0	0	1	9.815939752028498E+001	-8.8104939E-001	-8.8113678E-001	-1.343939602967900E+000	1.1841946E-003
2	0	0	0	9.865999750763876E+001	-8.8605559E-001	-8.8615155E-001	-1.372252232377790E+000	1.2160235E-003
2	0	0	0	9.916079749498749E+001	-8.9106333E-001	-8.9116496E-001	-1.401111951918865E+000	1.2486218E-003
2	0	0	1	9.966139748234127E+001	-8.9606971E-001	-8.9615625E-001	-1.429621507366260E+000	1.2811642E-003
2	0	0	0	1.001619974696951E+002	-9.0107548E-001	-9.0116960E-001	-1.458214694789241E+000	1.3140987E-003
2	0	0	1	1.006625974570488E+002	-9.0608168E-001	-9.0618730E-001	-1.488633425130487E+000	1.3489807E-003
2	0	0	0	1.011631974444026E+002	-9.1108751E-001	-9.1119760E-001	-1.517099810424266E+000	1.3823777E-003
2	0	0	1	1.016637974317564E+002	-9.1609371E-001	-9.1620171E-001	-1.547423498790787E+000	1.4177520E-003
2	0	0	0	1.021643974191102E+002	-9.2109972E-001	-9.2120069E-001	-1.577873576394591E+000	1.4535382E-003
2	0	0	1	1.026649974064640E+002	-9.2610562E-001	-9.2620969E-001	-1.607699891700795E+000	1.4890672E-003
2	0	0	0	1.031655973938177E+002	-9.3111169E-001	-9.3121481E-001	-1.638045706784538E+000	1.5253724E-003
2	0	0	0	1.036663973811665E+002	-9.3611956E-001	-9.3623453E-001	-1.668465054061542E+000	1.5620746E-003
2	0	0	1	1.041669973685202E+002	-9.4112575E-001	-9.4121647E-001	-1.701447504647232E+000	1.6014304E-003
2	0	0	0	1.046675973558740E+002	-9.4613147E-001	-9.4624364E-001	-1.733229010398194E+000	1.6400570E-003
2	0	0	1	1.051681973432278E+002	-9.5113778E-001	-9.5123965E-001	-1.765926011916973E+000	1.6798188E-003
2	0	0	0	1.056687973305816E+002	-9.5614350E-001	-9.5621157E-001	-1.798814146987638E+000	1.7200469E-003
2	0	0	1	1.061693973179354E+002	-9.6114975E-001	-9.6122044E-001	-1.831179703001787E+000	1.7601674E-003
2	0	0	0	1.066699973052891E+002	-9.6615541E-001	-9.6625757E-001	-1.863586152490093E+000	1.8007043E-003
2	0	0	1	1.071705972926429E+002	-9.7116178E-001	-9.7126973E-001	-1.897404921286554E+000	1.8428919E-003
2	0	0	0	1.076712972799942E+002	-9.7616851E-001	-9.7626835E-001	-1.931802897859576E+000	1.8859580E-003
2	0	0	0	1.081719972673454E+002	-9.8117572E-001	-9.8127913E-001	-1.966442248128573E+000	1.9296288E-003
2	0	0	1	1.086725972546992E+002	-9.8618150E-001	-9.8629051E-001	-2.000540270703414E+000	1.9731140E-003
2	0	0	0	1.091731972420530E+002	-9.9118769E-001	-9.9128592E-001	-2.035377372093926E+000	2.0176410E-003
2	0	0	1	1.096737972294068E+002	-9.9619365E-001	-9.9626356E-001	-2.069733725093322E+000	2.0620003E-003
2	0	0	0	1.099891972214391E+002	-9.9934626E-001	-9.9942839E-001	-2.091848301277906E+000	2.0906525E-003
2	0	0	0	1.100521972198476E+002	-1.0000215E+000	-1.0000570E+000	-2.092058181762695E+000	2.0921773E-003