EC-Lab ASCII FILE
Nb header lines : 55                          

I-V Characterization

Run on channel : 1 (SN 6514)
User : 
CE vs. WE compliance from -10 V to 10 V
Electrode connection : standard
Ewe ctrl range : min = -1.10 V, max = 0.20 V
Safety Limits :
	Do not start on E overload
Acquisition started on : 06/15/2016 18:12:53
Saved on :
	File : B125-G54-UN-G-D1GB-C7 BW 100mVs_01_IVC_C01.mpr
	Directory : E:\EC-Lab measurements\B125-G54-UN-G-D1GB\
	Host : 10.0.2.15
Device : VSP (SN 0295)
Address : USB
EC-Lab for windows v11.01 (software)
Internet server v11.00 (firmware)
Command interpretor v11.00 (firmware)
Electrode material : 
Initial state : 
Electrolyte : 
Comments : 
Electrode surface area : 0.001 cm²
Characteristic mass : 0.001 g
Equivalent Weight : 0.000 g/eq.
Density : 0.000 g/cm3
tR (h:m:s)          0:00:0.0000         
dER/dt (mV/h)       0.0                 
dER (mV)            0                   
dtR (s)             0.0000              
dE/dt               100.000             
dE/dt unit          mV/s                
Ei (V)              -1.000              
vs.                 Ref                 
EL (V)              0.100               
vs.                 Ref                 
record              <I>                 
dI                  0.000               
unit dI             µA                  
tI (s)              0.1000              
step percent        100                 
N                   100                 
E range min (V)     -1.100              
E range max (V)     0.200               
I Range             Auto                
I Range min         Unset               
I Range max         Unset               
I Range init        Unset               
Bandwidth           5                   

mode	ox/red	error	control changes	time/s	control/V	Ewe/V	<I>/mA	P/W
2	1	0	1	1.399999964633025E-001	-9.9106032E-001	-9.9121457E-001	-1.218713164329529E+000	1.2080063E-003
2	1	0	0	1.652999958241708E-001	-9.8853415E-001	-9.8865396E-001	-1.219754330465416E+000	1.2059150E-003
2	1	0	0	2.153999945585383E-001	-9.8352432E-001	-9.8365575E-001	-1.220253209738983E+000	1.2003091E-003
2	1	0	0	2.653999932954321E-001	-9.7852182E-001	-9.7864419E-001	-1.218453872362416E+000	1.1924328E-003
2	1	0	1	3.154999920297996E-001	-9.7351581E-001	-9.7363049E-001	-1.216305047320123E+000	1.1842317E-003
2	1	0	1	3.655999907641672E-001	-9.6850365E-001	-9.6863061E-001	-1.209671049543401E+000	1.1717244E-003
2	1	0	1	4.155999895010609E-001	-9.6350324E-001	-9.6362227E-001	-1.202409623772824E+000	1.1586687E-003
2	1	0	1	4.655999882379547E-001	-9.5850474E-001	-9.5859402E-001	-1.192270881117692E+000	1.1429037E-003
2	1	0	0	5.157999869697960E-001	-9.5348251E-001	-9.5357519E-001	-1.181693159519757E+000	1.1268333E-003
2	1	0	0	5.657999857066898E-001	-9.4848466E-001	-9.4861144E-001	-1.169598813372719E+000	1.1094948E-003
2	1	0	0	6.157999844435835E-001	-9.4348407E-001	-9.4359964E-001	-1.153301141728312E+000	1.0882545E-003
2	1	0	1	6.658999831779511E-001	-9.3847233E-001	-9.3860072E-001	-1.133608258032694E+000	1.0640055E-003
2	1	0	1	7.159999819123186E-001	-9.3346572E-001	-9.3358445E-001	-1.108991264638800E+000	1.0353370E-003
2	1	0	1	7.659999806492124E-001	-9.2846310E-001	-9.2859054E-001	-1.083815907826622E+000	1.0064212E-003
2	1	0	0	8.160999793835799E-001	-9.2345291E-001	-9.2356998E-001	-1.060006030497104E+000	9.7898976E-004
2	1	0	0	8.661999781179475E-001	-9.1844505E-001	-9.1854274E-001	-1.032377028936681E+000	9.4828242E-004
2	1	0	0	9.161999768548412E-001	-9.1344219E-001	-9.1356313E-001	-1.002141604305452E+000	9.1551960E-004
2	1	0	1	9.662999755892088E-001	-9.0843481E-001	-9.0854824E-001	-9.700540015722012E-001	8.8134088E-004
2	1	0	1	1.016399974323576E+000	-9.0342396E-001	-9.0354782E-001	-9.354043706781310E-001	8.4518257E-004
2	1	0	1	1.066399973060470E+000	-8.9842200E-001	-8.9853150E-001	-8.971933560165297E-001	8.0615649E-004
2	1	0	1	1.116399971797364E+000	-8.9342517E-001	-8.9352900E-001	-8.592810058482274E-001	7.6779252E-004
2	1	0	0	1.166599970529205E+000	-8.8840318E-001	-8.8851899E-001	-8.200296498043240E-001	7.2861189E-004
2	1	0	0	1.216599969266099E+000	-8.8340330E-001	-8.8350350E-001	-7.801827211073700E-001	6.8929419E-004
2	1	0	0	1.266599968002993E+000	-8.7840474E-001	-8.7851453E-001	-7.393422864827386E-001	6.4952293E-004
2	1	0	1	1.316799966734834E+000	-8.7338251E-001	-8.7350845E-001	-6.977258993766915E-001	6.0946948E-004
2	1	0	1	1.366799965471728E+000	-8.6838460E-001	-8.6851132E-001	-6.566827624885239E-001	5.7033641E-004
2	1	0	1	1.416799964208622E+000	-8.6338353E-001	-8.6350858E-001	-6.143590696293630E-001	5.3050433E-004
2	1	0	0	1.466899962942989E+000	-8.5837203E-001	-8.5850644E-001	-5.724561191077444E-001	4.9145729E-004
2	1	0	0	1.516999961677357E+000	-8.5336536E-001	-8.5349292E-001	-5.310733326480979E-001	4.5326733E-004
2	1	0	0	1.566999960414250E+000	-8.4836280E-001	-8.4848803E-001	-4.903594389076149E-001	4.1606411E-004
2	1	0	1	1.617099959148618E+000	-8.4335369E-001	-8.4346032E-001	-4.495493999615410E-001	3.7917707E-004
2	1	0	1	1.682199957504054E+000	-8.3684599E-001	-8.3693177E-001	-3.974083958647382E-001	3.3260370E-004
2	1	0	1	1.747199955862015E+000	-8.3034396E-001	-8.3042443E-001	-3.459039347766337E-001	2.8724706E-004
2	1	0	0	1.797399954593857E+000	-8.2532203E-001	-8.2538635E-001	-3.070506100724764E-001	2.5343537E-004
2	1	0	0	1.847399953330751E+000	-8.2032466E-001	-8.2038647E-001	-2.691119072535666E-001	2.2077576E-004
2	1	0	0	1.897399952067644E+000	-8.1532365E-001	-8.1540841E-001	-2.319885998183802E-001	1.8916545E-004
2	1	0	1	1.947499950802012E+000	-8.1031239E-001	-8.1038970E-001	-1.955595940112496E-001	1.5847948E-004
2	1	0	1	1.997599949536379E+000	-8.0530500E-001	-8.0537325E-001	-1.595960642554237E-001	1.2853440E-004
2	1	0	1	2.047599948273273E+000	-8.0030268E-001	-8.0036795E-001	-1.243989188420038E-001	9.9564910E-005
2	1	0	0	2.097699947007641E+000	-7.9529345E-001	-7.9535621E-001	-9.004181098896402E-002	7.1615315E-005
2	1	0	0	2.147799945742008E+000	-7.9028434E-001	-7.9034412E-001	-5.637654824698979E-002	4.4556873E-005
2	1	0	0	2.197799944478902E+000	-7.8528172E-001	-7.8532988E-001	-2.349418378323764E-002	1.8450684E-005
2	1	0	1	2.247899943213270E+000	-7.8027505E-001	-7.8032857E-001	8.697205969859789E-003	6.7866781E-006
2	1	0	1	2.297999941947637E+000	-7.7526337E-001	-7.7533209E-001	4.022945761681246E-002	3.1191190E-005
2	1	0	1	2.347999940684531E+000	-7.7026242E-001	-7.7031821E-001	7.104030460262467E-002	5.4723641E-005
2	1	0	1	2.397999939421425E+000	-7.6526457E-001	-7.6532334E-001	1.009250529005534E-001	7.7240300E-005
2	1	0	0	2.448199938153266E+000	-7.6024264E-001	-7.6029104E-001	1.303602903156236E-001	9.9111763E-005
2	1	0	0	2.498199936890160E+000	-7.5524342E-001	-7.5526899E-001	1.590944577605211E-001	1.2015911E-004
2	1	0	0	2.548199935627053E+000	-7.5024426E-001	-7.5028342E-001	1.868076649250721E-001	1.4015869E-004
2	1	0	1	2.598399934358895E+000	-7.4522185E-001	-7.4525136E-001	2.139668237121146E-001	1.5945907E-004
2	1	0	1	2.648399933095789E+000	-7.4022472E-001	-7.4025255E-001	2.403748035360546E-001	1.7793807E-004
2	1	0	1	2.698399931832682E+000	-7.3522300E-001	-7.3525870E-001	2.662648188131937E-001	1.9577352E-004
2	1	0	0	2.748499930567050E+000	-7.3021239E-001	-7.3026061E-001	2.915309643757540E-001	2.1289357E-004
2	1	0	0	2.798599929301417E+000	-7.2520453E-001	-7.2523779E-001	3.159797897955023E-001	2.2916049E-004
2	1	0	0	2.848599928038311E+000	-7.2020227E-001	-7.2023565E-001	3.396302160025589E-001	2.4461380E-004
2	1	0	1	2.898699926772679E+000	-7.1519381E-001	-7.1523732E-001	3.628044840915958E-001	2.5949129E-004
2	1	0	1	2.948799925507046E+000	-7.1018374E-001	-7.1024162E-001	3.855808234655669E-001	2.7385555E-004
2	1	0	1	2.998799924243940E+000	-7.0518160E-001	-7.0522261E-001	4.072913722044724E-001	2.8723109E-004
2	1	0	0	3.048899922978308E+000	-7.0017487E-001	-7.0021474E-001	4.292877679353011E-001	3.0059362E-004
2	1	0	0	3.098999921712675E+000	-6.9516265E-001	-6.9520944E-001	4.499289212485351E-001	3.1279484E-004
2	1	0	0	3.148999920449569E+000	-6.9016230E-001	-6.9020736E-001	4.701819842476684E-001	3.2452308E-004
2	1	0	0	3.198999919186463E+000	-6.8516469E-001	-6.8520564E-001	4.897427392747433E-001	3.3557450E-004
2	1	0	1	3.249199917918304E+000	-6.8014216E-001	-6.8016946E-001	5.091597392115617E-001	3.4631492E-004
2	1	0	1	3.299199916655198E+000	-6.7514378E-001	-6.7519403E-001	5.274460413879751E-001	3.5612841E-004
2	1	0	1	3.349199915392092E+000	-6.7014343E-001	-6.7018795E-001	5.455478920048407E-001	3.6561963E-004
2	1	0	0	3.399299914126459E+000	-6.6513121E-001	-6.6516221E-001	5.634556599299287E-001	3.7478941E-004
2	1	0	0	3.449399912860827E+000	-6.6012478E-001	-6.6016376E-001	5.804616682469668E-001	3.8319975E-004
2	1	0	0	3.499399911597720E+000	-6.5512270E-001	-6.5517330E-001	5.971927009138134E-001	3.9126471E-004
2	1	0	1	3.549499910332088E+000	-6.5011263E-001	-6.5016621E-001	6.130569635544290E-001	3.9858892E-004
2	1	0	1	3.599599909066455E+000	-6.4510417E-001	-6.4515430E-001	6.289095208753084E-001	4.0574369E-004
2	1	0	1	3.649599907803349E+000	-6.4010191E-001	-6.4015996E-001	6.446268556033182E-001	4.1266432E-004
2	1	0	0	3.699699906537717E+000	-6.3509375E-001	-6.3516796E-001	6.588556525236591E-001	4.1848401E-004
2	1	0	0	3.749799905272084E+000	-6.3008296E-001	-6.3016385E-001	6.733600216950961E-001	4.2432715E-004
2	1	0	0	3.799799904008978E+000	-6.2508094E-001	-6.2517041E-001	6.872857957502649E-001	4.2967073E-004
2	1	0	0	3.849799902745872E+000	-6.2008488E-001	-6.2016398E-001	7.003631343632133E-001	4.3433998E-004
2	1	0	1	3.899999901477713E+000	-6.1506236E-001	-6.1514294E-001	7.135995328576623E-001	4.3896571E-004
2	1	0	1	3.949999900214607E+000	-6.1006272E-001	-6.1013919E-001	7.270046101034549E-001	4.4357401E-004
2	1	0	1	3.999999898951501E+000	-6.0506397E-001	-6.0513979E-001	7.399653621135069E-001	4.4778248E-004
2	1	0	0	4.050199897683342E+000	-6.0004151E-001	-6.0011148E-001	7.522009841895034E-001	4.5140446E-004
2	1	0	0	4.100199896420236E+000	-5.9504354E-001	-5.9511012E-001	7.640733204854655E-001	4.5470777E-004
2	1	0	0	4.150199895157130E+000	-5.9004325E-001	-5.9010422E-001	7.760446879806864E-001	4.5794726E-004
2	1	0	1	4.200299893891497E+000	-5.8503133E-001	-5.8509809E-001	7.876320579906340E-001	4.6084201E-004
2	1	0	1	4.250399892625865E+000	-5.8002478E-001	-5.8010119E-001	7.978066357033633E-001	4.6280859E-004
2	1	0	1	4.300399891362758E+000	-5.7502252E-001	-5.7510412E-001	8.074206900329308E-001	4.6435097E-004
2	1	0	0	4.350499890097126E+000	-5.7001269E-001	-5.7008946E-001	8.182767740794610E-001	4.6649095E-004
2	1	0	0	4.400599888831493E+000	-5.6500345E-001	-5.6508124E-001	8.281599083175095E-001	4.6797763E-004
2	1	0	0	4.450599887568387E+000	-5.6000125E-001	-5.6008732E-001	8.368942591806929E-001	4.6873387E-004
2	1	0	1	4.500699886302755E+000	-5.5499405E-001	-5.5507672E-001	8.460244819652090E-001	4.6960849E-004
2	1	0	1	4.550799885037122E+000	-5.4998302E-001	-5.5006051E-001	8.543303854696767E-001	4.6993341E-004
2	1	0	1	4.600799883774016E+000	-5.4498178E-001	-5.4504716E-001	8.625863474895290E-001	4.7015023E-004
2	1	0	1	4.650799882510910E+000	-5.3998458E-001	-5.4004079E-001	8.699173200406269E-001	4.6979083E-004
2	1	0	0	4.700999881242751E+000	-5.3496194E-001	-5.3503585E-001	8.781762796414281E-001	4.6985579E-004
2	1	0	0	4.750999879979645E+000	-5.2996248E-001	-5.3003567E-001	8.844451573220624E-001	4.6878748E-004
2	1	0	0	4.800999878716539E+000	-5.2496380E-001	-5.2503198E-001	8.905696554559643E-001	4.6757754E-004
2	1	0	1	4.851199877448380E+000	-5.1994121E-001	-5.2002126E-001	8.981240632604823E-001	4.6704360E-004
2	1	0	1	4.901199876185274E+000	-5.1494426E-001	-5.1501775E-001	9.051347157085061E-001	4.6616045E-004
2	1	0	1	4.951199874922168E+000	-5.0994289E-001	-5.1000732E-001	9.125418963899108E-001	4.6540305E-004
2	1	0	0	5.001299873656535E+000	-5.0493151E-001	-5.0500721E-001	9.197397591375385E-001	4.6447522E-004
2	1	0	0	5.051399872390903E+000	-4.9992400E-001	-4.9999449E-001	9.257277878857639E-001	4.6285879E-004
2	1	0	0	5.101399871127796E+000	-4.9492198E-001	-4.9498698E-001	9.314279559960947E-001	4.6104472E-004
2	1	0	1	5.151499869862164E+000	-4.8991275E-001	-4.8998347E-001	9.372390953710266E-001	4.5923167E-004
2	1	0	1	5.201599868596531E+000	-4.8490348E-001	-4.8496038E-001	9.416111527688269E-001	4.5664411E-004
2	1	0	1	5.251599867333425E+000	-4.7990134E-001	-4.7995618E-001	9.457934048832541E-001	4.5393940E-004
2	1	0	0	5.301699866067793E+000	-4.7489414E-001	-4.7494820E-001	9.509283461414544E-001	4.5164171E-004
2	1	0	0	5.351799864802160E+000	-4.6988243E-001	-4.6992210E-001	9.568896823999831E-001	4.4966361E-004
2	1	0	0	5.401799863539054E+000	-4.6488157E-001	-4.6492964E-001	9.616477620801867E-001	4.4709854E-004
2	1	0	0	5.451799862275948E+000	-4.5988420E-001	-4.5993346E-001	9.667843756114678E-001	4.4465647E-004
2	1	0	1	5.501999861007789E+000	-4.5486170E-001	-4.5491466E-001	9.691961685506207E-001	4.4090155E-004
2	1	0	1	5.551999859744683E+000	-4.4986320E-001	-4.4990900E-001	9.735816576939591E-001	4.3802315E-004
2	1	0	1	5.601999858481577E+000	-4.4486341E-001	-4.4491535E-001	9.784606939469178E-001	4.3533219E-004
2	1	0	0	5.652199857213418E+000	-4.3984091E-001	-4.3989092E-001	9.822177038983781E-001	4.3206866E-004
2	1	0	0	5.702199855950312E+000	-4.3484402E-001	-4.3487367E-001	9.860151148434539E-001	4.2879200E-004
2	1	0	0	5.752199854687206E+000	-4.2984265E-001	-4.2988476E-001	9.903348977089372E-001	4.2572987E-004
2	1	0	1	5.802299853421573E+000	-4.2483157E-001	-4.2487779E-001	9.953064473431468E-001	4.2288360E-004
2	1	0	1	5.852399852155941E+000	-4.1982409E-001	-4.1987899E-001	1.001167648567985E+000	4.2036927E-004
2	1	0	1	5.902399850892834E+000	-4.1482154E-001	-4.1487357E-001	1.006577364740505E+000	4.1760234E-004
2	1	0	0	5.952499849627202E+000	-4.0981293E-001	-4.0984383E-001	1.011697409459316E+000	4.1463794E-004
2	1	0	0	6.002599848361569E+000	-4.0480295E-001	-4.0485427E-001	1.014788881808936E+000	4.1084160E-004
2	1	0	0	6.052599847098463E+000	-3.9980075E-001	-3.9986393E-001	1.016919498248001E+000	4.0662944E-004
2	1	0	1	6.102699845832831E+000	-3.9479414E-001	-3.9485046E-001	1.017788139969376E+000	4.0187413E-004
2	1	0	1	6.167799844188266E+000	-3.8827980E-001	-3.8830894E-001	1.024150880192501E+000	3.9768693E-004
2	1	0	1	6.232799842546228E+000	-3.8178217E-001	-3.8187295E-001	1.022841105822503E+000	3.9059535E-004
2	1	0	0	6.282899841280596E+000	-3.7677178E-001	-3.7686715E-001	1.026287523638121E+000	3.8677405E-004
2	1	0	0	6.332999840014963E+000	-3.7176362E-001	-3.7185317E-001	1.027474763988462E+000	3.8206976E-004
2	1	0	0	6.382999838751857E+000	-3.6676154E-001	-3.6685309E-001	1.028298405892548E+000	3.7723445E-004
2	1	0	1	6.433099837486225E+000	-3.6175290E-001	-3.6185476E-001	1.029632918890173E+000	3.7257758E-004
2	1	0	1	6.483199836220592E+000	-3.5674298E-001	-3.5683760E-001	1.032329084097560E+000	3.6837385E-004
2	1	0	1	6.533199834957486E+000	-3.5174075E-001	-3.5184145E-001	1.035898000938886E+000	3.6447187E-004
2	1	0	1	6.583199833694380E+000	-3.4674415E-001	-3.4682676E-001	1.039591879733177E+000	3.6055828E-004
2	1	0	0	6.633399832426221E+000	-3.4172198E-001	-3.4179819E-001	1.041806812133091E+000	3.5608766E-004
2	1	0	0	6.683399831163115E+000	-3.3672193E-001	-3.3681205E-001	1.043333566368354E+000	3.5140730E-004
2	1	0	0	6.733399829900009E+000	-3.3172333E-001	-3.3178899E-001	1.044610490870390E+000	3.4659027E-004
2	1	0	1	6.783599828631850E+000	-3.2670105E-001	-3.2677847E-001	1.047679571086260E+000	3.4235913E-004
2	1	0	1	6.833599827368744E+000	-3.2170326E-001	-3.2179853E-001	1.048133145300860E+000	3.3728770E-004
2	1	0	1	6.883599826105637E+000	-3.1670251E-001	-3.1680375E-001	1.049812347982449E+000	3.3258449E-004
2	1	0	0	6.933699824840005E+000	-3.1169075E-001	-3.1179342E-001	1.051894446770213E+000	3.2797377E-004
2	1	0	0	6.983799823574373E+000	-3.0668396E-001	-3.0678993E-001	1.054661758808916E+000	3.2355962E-004
2	1	0	0	7.033799822311266E+000	-3.0168176E-001	-3.0177566E-001	1.056021008321654E+000	3.1868144E-004
2	1	0	1	7.083899821045634E+000	-2.9667175E-001	-2.9676610E-001	1.056374687961332E+000	3.1349619E-004
2	1	0	1	7.133999819780001E+000	-2.9166344E-001	-2.9174584E-001	1.058350213738890E+000	3.0876926E-004
2	1	0	1	7.183999818516895E+000	-2.8666094E-001	-2.8675836E-001	1.060834545288838E+000	3.0420319E-004
2	1	0	0	7.234099817251263E+000	-2.8165326E-001	-2.8174549E-001	1.063414921005646E+000	2.9961235E-004
2	1	0	0	7.284199815985630E+000	-2.7664250E-001	-2.7673110E-001	1.065222843508240E+000	2.9478030E-004
2	1	0	0	7.334199814722524E+000	-2.7164087E-001	-2.7172953E-001	1.065939084609854E+000	2.8964711E-004
2	1	0	0	7.384199813459418E+000	-2.6664388E-001	-2.6673755E-001	1.067088951334825E+000	2.8463270E-004
2	1	0	1	7.434399812191259E+000	-2.6162171E-001	-2.6171300E-001	1.068433773693577E+000	2.7962300E-004
2	1	0	1	7.484399810928153E+000	-2.5662220E-001	-2.5670725E-001	1.069122205184219E+000	2.7445142E-004
2	1	0	1	7.534399809665047E+000	-2.5162300E-001	-2.5170380E-001	1.070687641804033E+000	2.6949614E-004
2	1	0	0	7.584599808396888E+000	-2.4660079E-001	-2.4670540E-001	1.071612599977094E+000	2.6437262E-004
2	1	0	0	7.634599807133782E+000	-2.4160342E-001	-2.4171561E-001	1.071476254621306E+000	2.5899254E-004
2	1	0	0	7.684599805870675E+000	-2.3660217E-001	-2.3671581E-001	1.072104939376025E+000	2.5378418E-004
2	1	0	1	7.734699804605043E+000	-2.3159069E-001	-2.3168851E-001	1.072916170971816E+000	2.4858236E-004
2	1	0	1	7.784799803339411E+000	-2.2658387E-001	-2.2670402E-001	1.074022498450905E+000	2.4348522E-004
2	1	0	1	7.834799802076304E+000	-2.2158137E-001	-2.2168995E-001	1.074592919786154E+000	2.3822645E-004
2	1	0	0	7.884899800810672E+000	-2.1657225E-001	-2.1667939E-001	1.076352623131413E+000	2.3322343E-004
2	1	0	0	7.934999799545039E+000	-2.1156293E-001	-2.1167615E-001	1.078007109198800E+000	2.2818839E-004
2	1	0	0	7.984999798281933E+000	-2.0656057E-001	-2.0667401E-001	1.077372287978104E+000	2.2266485E-004
2	1	0	1	8.035099797016301E+000	-2.0155329E-001	-2.0167455E-001	1.077454463724877E+000	2.1729515E-004
2	1	0	1	8.085199795750668E+000	-1.9654214E-001	-1.9665302E-001	1.078193920613488E+000	2.1203009E-004
2	1	0	1	8.135199794487562E+000	-1.9154088E-001	-1.9164474E-001	1.079786873909207E+000	2.0693548E-004
2	1	0	1	8.185199793224456E+000	-1.8654358E-001	-1.8665993E-001	1.081425039999274E+000	2.0185873E-004
2	1	0	0	8.235399791956297E+000	-1.8152124E-001	-1.8161812E-001	1.081550990819380E+000	1.9642926E-004
2	1	0	0	8.285399790693191E+000	-1.7652225E-001	-1.7662406E-001	1.080329548541263E+000	1.9081219E-004
2	1	0	0	8.335399789430085E+000	-1.7152259E-001	-1.7161961E-001	1.080363017778547E+000	1.8541148E-004
2	1	0	1	8.385599788161926E+000	-1.6650043E-001	-1.6659640E-001	1.080890680214866E+000	1.8007250E-004
2	1	0	1	8.435599786898820E+000	-1.6150351E-001	-1.6160780E-001	1.082668811635518E+000	1.7496773E-004
2	1	0	1	8.485599785635713E+000	-1.5650178E-001	-1.5659854E-001	1.083063959483001E+000	1.6960624E-004
2	1	0	0	8.535699784370081E+000	-1.5149111E-001	-1.5157780E-001	1.083980885552396E+000	1.6430744E-004
2	1	0	0	8.585799783104449E+000	-1.4648351E-001	-1.4657344E-001	1.083659752933963E+000	1.5883574E-004
2	1	0	0	8.635799781841342E+000	-1.4148088E-001	-1.4155895E-001	1.084324258026664E+000	1.5349580E-004
2	1	0	1	8.685899780575710E+000	-1.3647227E-001	-1.3653441E-001	1.085614322036513E+000	1.4822371E-004
2	1	0	1	8.735999779310077E+000	-1.3146263E-001	-1.3152349E-001	1.086297307978089E+000	1.4287361E-004
2	1	0	1	8.785999778046971E+000	-1.2646015E-001	-1.2651964E-001	1.085984474011429E+000	1.3739835E-004
2	1	0	0	8.836099776781339E+000	-1.2145362E-001	-1.2151697E-001	1.086763516819763E+000	1.3206022E-004
2	1	0	0	8.886199775515706E+000	-1.1644175E-001	-1.1650217E-001	1.087742199196243E+000	1.2672432E-004
2	1	0	0	8.936199774252600E+000	-1.1144096E-001	-1.1151402E-001	1.088142269663084E+000	1.2134312E-004
2	1	0	0	8.986199772989494E+000	-1.0644309E-001	-1.0651097E-001	1.089368554442444E+000	1.1602970E-004
2	1	0	1	9.036399771721335E+000	-1.0142092E-001	-1.0148962E-001	1.090065131221812E+000	1.1063030E-004
2	1	0	1	9.086399770458229E+000	-9.6422322E-002	-9.6479893E-002	1.091212604742866E+000	1.0528007E-004
2	1	0	1	9.136399769195123E+000	-9.1422409E-002	-9.1494575E-002	1.090895543807215E+000	9.9811026E-005
2	1	0	0	9.186599767926964E+000	-8.6399965E-002	-8.6472474E-002	1.090855929525503E+000	9.4329014E-005
2	1	0	0	9.236599766663858E+000	-8.1403598E-002	-8.1481427E-002	1.091288702497705E+000	8.8919762E-005
2	1	0	0	9.286599765400751E+000	-7.6401442E-002	-7.6469511E-002	1.089190633159834E+000	8.3289873E-005
2	1	0	1	9.336699764135119E+000	-7.1391121E-002	-7.1465902E-002	1.088637699122662E+000	7.7800476E-005
2	1	0	1	9.386799762869487E+000	-6.6382892E-002	-6.6464759E-002	1.090308893236012E+000	7.2467119E-005
2	1	0	1	9.436799761606380E+000	-6.1380714E-002	-6.1454210E-002	1.091359727412619E+000	6.7068650E-005
2	1	0	0	9.486899760340748E+000	-5.6372423E-002	-5.6447349E-002	1.090484601663881E+000	6.1554965E-005
2	1	0	0	9.536999759075115E+000	-5.1362179E-002	-5.1432423E-002	1.090078794827413E+000	5.6065393E-005
2	1	0	0	9.586999757812009E+000	-4.6359979E-002	-4.6438944E-002	1.090630322404078E+000	5.0647719E-005
2	1	0	0	9.636999756548903E+000	-4.1363601E-002	-4.1437790E-002	1.091241469716625E+000	4.5218636E-005
2	1	0	1	9.687199755280744E+000	-3.6341425E-002	-3.6426201E-002	1.090925706906945E+000	3.9738279E-005
2	1	0	1	9.737199754017638E+000	-3.1341244E-002	-3.1420380E-002	1.091506018897630E+000	3.4295535E-005
2	1	0	1	9.787199752754532E+000	-2.6342867E-002	-2.6414078E-002	1.092886893099042E+000	2.8867600E-005
2	1	0	0	9.837399751486373E+000	-2.1320486E-002	-2.1387680E-002	1.093851445674021E+000	2.3394945E-005
2	1	0	0	9.887399750223267E+000	-1.6322521E-002	-1.6401213E-002	1.095520292131827E+000	1.7967861E-005
2	1	0	0	9.937399748960161E+000	-1.1321932E-002	-1.1412899E-002	1.095442502539090E+000	1.2502174E-005
2	1	0	1	9.987499747694528E+000	-6.3100415E-003	-6.4028334E-003	1.096791491161943E+000	7.0225733E-006
2	1	0	1	1.003759974642890E+001	-1.3033981E-003	-1.3992670E-003	1.097411897194322E+000	1.5355722E-006
2	1	0	1	1.008759974516579E+001	3.6987930E-003	3.6092121E-003	1.098258726014061E+000	3.9638485E-006
2	1	0	0	1.013769974390016E+001	8.7086447E-003	8.6172111E-003	1.099827137861197E+000	9.4774423E-006
2	1	0	0	1.018779974263452E+001	1.3717284E-002	1.3641588E-002	1.100324507866593E+000	1.5010174E-005
2	1	0	0	1.023779974137142E+001	1.8719671E-002	1.8643821E-002	1.099240634946849E+000	2.0494046E-005
2	1	0	1	1.028789974010579E+001	2.3727300E-002	2.3649130E-002	1.099132262227510E+000	2.5993522E-005
2	1	0	1	1.033799973884015E+001	2.8738171E-002	2.8662302E-002	1.098965143181555E+000	3.1498872E-005
2	1	0	1	1.038799973757705E+001	3.3739738E-002	3.3665061E-002	1.100040642102762E+000	3.7032936E-005
2	1	0	1	1.043799973631394E+001	3.8736463E-002	3.8661331E-002	1.100948006779046E+000	4.2564116E-005
2	1	0	0	1.048819973504578E+001	4.3758843E-002	4.3675810E-002	1.100212075861171E+000	4.8052654E-005
2	1	0	0	1.053819973378268E+001	4.8758395E-002	4.8667945E-002	1.099298388422461E+000	5.3500593E-005
2	1	0	0	1.058819973251957E+001	5.3757358E-002	5.3684693E-002	1.100638069475949E+000	5.9087415E-005
2	1	0	1	1.063839973125141E+001	5.8779679E-002	5.8709528E-002	1.102510183687237E+000	6.4727850E-005
2	1	0	1	1.068839972998830E+001	6.3777007E-002	6.3712180E-002	1.102437010397020E+000	7.0238668E-005
2	1	0	1	1.073839972872520E+001	6.8778016E-002	6.8696961E-002	1.101413733247997E+000	7.5663775E-005
2	1	0	0	1.078849972745957E+001	7.3789433E-002	7.3713019E-002	1.101417996305441E+000	8.1188846E-005
2	1	0	0	1.083859972619393E+001	7.8796715E-002	7.8737870E-002	1.101414643863961E+000	8.6723041E-005
2	1	0	0	1.088859972493083E+001	8.3798893E-002	8.3734311E-002	1.101370339169854E+000	9.2222486E-005
2	1	0	1	1.093869972366520E+001	8.8808082E-002	8.8739283E-002	1.101964588080048E+000	9.7787546E-005
2	1	0	1	1.098879972239956E+001	9.3817420E-002	9.3731694E-002	1.102302544495563E+000	1.0332069E-004
2	1	0	1	1.103199972130824E+001	9.8139785E-002	9.8074198E-002	1.102885673530579E+000	1.0816463E-004
2	1	0	0	1.105059972083836E+001	9.9997252E-002	9.9898703E-002	1.088726242383320E+000	1.0876234E-004