EC-Lab ASCII FILE
Nb header lines : 55                          

I-V Characterization

Run on channel : 1 (SN 6514)
User : 
CE vs. WE compliance from -10 V to 10 V
Electrode connection : standard
Ewe ctrl range : min = -1.10 V, max = 0.20 V
Safety Limits :
	Do not start on E overload
Acquisition started on : 06/15/2016 17:28:19
Saved on :
	File : B125-G54-UN-G-D1GB-C1 FW 100mVs_05_IVC_C01.mpr
	Directory : E:\EC-Lab measurements\B125-G54-UN-G-D1GB\
	Host : 10.0.2.15
Device : VSP (SN 0295)
Address : USB
EC-Lab for windows v11.01 (software)
Internet server v11.00 (firmware)
Command interpretor v11.00 (firmware)
Electrode material : 
Initial state : 
Electrolyte : 
Comments : 
Electrode surface area : 0.001 cm²
Characteristic mass : 0.001 g
Equivalent Weight : 0.000 g/eq.
Density : 0.000 g/cm3
tR (h:m:s)          0:00:0.0000         
dER/dt (mV/h)       0.0                 
dER (mV)            0                   
dtR (s)             0.0000              
dE/dt               100.000             
dE/dt unit          mV/s                
Ei (V)              0.100               
vs.                 Ref                 
EL (V)              -1.000              
vs.                 Ref                 
record              <I>                 
dI                  0.000               
unit dI             µA                  
tI (s)              0.1000              
step percent        100                 
N                   100                 
E range min (V)     -1.100              
E range max (V)     0.200               
I Range             Auto                
I Range min         Unset               
I Range max         Unset               
I Range init        Unset               
Bandwidth           5                   

mode	ox/red	error	control changes	time/s	control/V	Ewe/V	<I>/mA	P/W
2	0	0	1	4.405359888711246E+001	9.9982046E-002	9.9928021E-002	3.849688172340393E-001	3.8469174E-005
2	0	0	1	4.407879888647585E+001	9.7463615E-002	9.7400755E-002	1.126141185475150E+000	1.0968700E-004
2	0	0	0	4.412899888520769E+001	9.2441522E-002	9.2376374E-002	1.123604308990964E+000	1.0379449E-004
2	0	0	0	4.417899888394459E+001	8.7441109E-002	8.7379776E-002	1.122499860910171E+000	9.8083787E-005
2	0	0	0	4.422899888268148E+001	8.2443133E-002	8.2372338E-002	1.122758004820030E+000	9.2484202E-005
2	0	0	1	4.427919888141332E+001	7.7420712E-002	7.7369183E-002	1.122650480418296E+000	8.6858548E-005
2	0	0	1	4.432919888015022E+001	7.2422251E-002	7.2353810E-002	1.122531735551711E+000	8.1219448E-005
2	0	0	1	4.437919887888711E+001	6.7422427E-002	6.7356348E-002	1.121487970375390E+000	7.5539334E-005
2	0	0	0	4.442939887761895E+001	6.2400050E-002	6.2341753E-002	1.120388528861630E+000	6.9846988E-005
2	0	0	0	4.447939887635584E+001	5.7403468E-002	5.7339288E-002	1.120018462407343E+000	6.4221058E-005
2	0	0	0	4.452939887509274E+001	5.2401818E-002	5.2341986E-002	1.120293464198088E+000	5.8638387E-005
2	0	0	1	4.457949887382711E+001	4.7390901E-002	4.7325175E-002	1.121296504273655E+000	5.3065552E-005
2	0	0	1	4.462959887256147E+001	4.2383239E-002	4.2315736E-002	1.120483302289726E+000	4.7414076E-005
2	0	0	1	4.467959887129837E+001	3.7380982E-002	3.7318088E-002	1.118744766260491E+000	4.1749416E-005
2	0	0	0	4.472969887003273E+001	3.2372087E-002	3.2303933E-002	1.117282003976545E+000	3.6092602E-005
2	0	0	0	4.477979886876710E+001	2.7362570E-002	2.7296839E-002	1.117855175583880E+000	3.0513913E-005
2	0	0	0	4.482979886750400E+001	2.2360343E-002	2.2291528E-002	1.119038456694187E+000	2.4945077E-005
2	0	0	1	4.487989886623836E+001	1.7353259E-002	1.7290214E-002	1.117560721452175E+000	1.9322864E-005
2	0	0	1	4.492999886497273E+001	1.2341934E-002	1.2251715E-002	1.114587174083851E+000	1.3655605E-005
2	0	0	1	4.497999886370962E+001	7.3407097E-003	7.2549526E-003	1.112053984108643E+000	8.0678992E-006
2	0	0	1	4.502999886244652E+001	2.3433890E-003	2.2716266E-003	1.111197965345438E+000	2.5242268E-006
2	0	0	0	4.508019886117836E+001	-2.6787110E-003	-2.7757022E-003	1.110041637098828E+000	3.0811450E-006
2	0	0	0	4.513019885991525E+001	-7.6781441E-003	-7.7756848E-003	1.107352990840816E+000	8.6104283E-006
2	0	0	0	4.518019885865215E+001	-1.2677172E-002	-1.2764268E-002	1.103101864094143E+000	1.4080288E-005
2	0	0	1	4.523039885738399E+001	-1.7699417E-002	-1.7754542E-002	1.100553594402282E+000	1.9539824E-005
2	0	0	1	4.528039885612088E+001	-2.2697031E-002	-2.2755643E-002	1.096729665098707E+000	2.4956789E-005
2	0	0	1	4.533039885485778E+001	-2.7697895E-002	-2.7769640E-002	1.094724809113156E+000	3.0400113E-005
2	0	0	0	4.538049885359214E+001	-3.2709625E-002	-3.2786608E-002	1.090575713718675E+000	3.5756279E-005
2	0	0	0	4.543059885232651E+001	-3.7716325E-002	-3.7770960E-002	1.086129070378261E+000	4.1024137E-005
2	0	0	0	4.548059885106341E+001	-4.2718586E-002	-4.2794410E-002	1.081957437461996E+000	4.6301731E-005
2	0	0	1	4.553069884979777E+001	-4.7728520E-002	-4.7792539E-002	1.075718643944074E+000	5.1411324E-005
2	0	0	1	4.558079884853214E+001	-5.2737013E-002	-5.2801173E-002	1.070378320248471E+000	5.6517230E-005
2	0	0	1	4.563079884726903E+001	-5.7739276E-002	-5.7796367E-002	1.063513968520125E+000	6.1467246E-005
2	0	0	0	4.568089884600340E+001	-6.2747404E-002	-6.2815703E-002	1.057484951945828E+000	6.6426663E-005
2	0	0	0	4.573099884473777E+001	-6.7757718E-002	-6.7817166E-002	1.052380920567147E+000	7.1369490E-005
2	0	0	0	4.578099884347466E+001	-7.2759971E-002	-7.2817139E-002	1.045970524687853E+000	7.6164579E-005
2	0	0	1	4.583109884220903E+001	-7.7766314E-002	-7.7827282E-002	1.039267399614779E+000	8.0883357E-005
2	0	0	1	4.588119884094340E+001	-8.2778476E-002	-8.2837731E-002	1.031988264590413E+000	8.5487569E-005
2	0	0	1	4.593119883968029E+001	-8.7778859E-002	-8.7839037E-002	1.024146931903124E+000	8.9960078E-005
2	0	0	1	4.598119883841719E+001	-9.2776887E-002	-9.2826158E-002	1.016526567766285E+000	9.4360257E-005
2	0	0	0	4.603139883714903E+001	-9.7799204E-002	-9.7839229E-002	1.009698058541145E+000	9.8788078E-005
2	0	0	0	4.608139883588592E+001	-1.0279780E-001	-1.0285988E-001	1.001909882781899E+000	1.0305634E-004
2	0	0	0	4.613139883462281E+001	-1.0779759E-001	-1.0785241E-001	9.948571687019907E-001	1.0729774E-004
2	0	0	1	4.618159883335466E+001	-1.1281987E-001	-1.1288925E-001	9.874121893600538E-001	1.1146822E-004
2	0	0	1	4.623159883209155E+001	-1.1781664E-001	-1.1786840E-001	9.794962149938655E-001	1.1545165E-004
2	0	0	1	4.628159883082844E+001	-1.2281851E-001	-1.2287712E-001	9.713437314757485E-001	1.1935592E-004
2	0	0	0	4.633169882956281E+001	-1.2782925E-001	-1.2788188E-001	9.634761943594405E-001	1.2321115E-004
2	0	0	0	4.638179882829718E+001	-1.3283692E-001	-1.3288954E-001	9.566906434656168E-001	1.2713418E-004
2	0	0	0	4.643179882703407E+001	-1.3783927E-001	-1.3788421E-001	9.494107794213846E-001	1.3090875E-004
2	0	0	1	4.648189882576844E+001	-1.4284819E-001	-1.4292802E-001	9.419935715005323E-001	1.3463727E-004
2	0	0	1	4.653199882450281E+001	-1.4785765E-001	-1.4793311E-001	9.337615462408904E-001	1.3813424E-004
2	0	0	1	4.658199882323970E+001	-1.5285997E-001	-1.5292518E-001	9.260441074967887E-001	1.4161546E-004
2	0	0	0	4.663209882197407E+001	-1.5786693E-001	-1.5793449E-001	9.176392909328079E-001	1.4492689E-004
2	0	0	0	4.668219882070844E+001	-1.6287822E-001	-1.6296037E-001	9.093243720163962E-001	1.4818383E-004
2	0	0	0	4.673219881944533E+001	-1.6787972E-001	-1.6795337E-001	9.018790675931312E-001	1.5147364E-004
2	0	0	0	4.678219881818222E+001	-1.7287682E-001	-1.7296006E-001	8.947589103444287E-001	1.5475755E-004
2	0	0	1	4.683239881691406E+001	-1.7789903E-001	-1.7797762E-001	8.872775462864875E-001	1.5791555E-004
2	0	0	1	4.688239881565096E+001	-1.8289861E-001	-1.8298383E-001	8.783971951286880E-001	1.6073248E-004
2	0	0	1	4.693239881438785E+001	-1.8789752E-001	-1.8798800E-001	8.701502285651941E-001	1.6357780E-004
2	0	0	0	4.698259881311969E+001	-1.9291982E-001	-1.9302163E-001	8.620266462529260E-001	1.6638979E-004
2	0	0	0	4.703259881185659E+001	-1.9791733E-001	-1.9799268E-001	8.552645396385703E-001	1.6933613E-004
2	0	0	0	4.708259881059348E+001	-2.0291819E-001	-2.0301591E-001	8.480147929960538E-001	1.7216049E-004
2	0	0	1	4.713269880932785E+001	-2.0793015E-001	-2.0802884E-001	8.410177991776635E-001	1.7495596E-004
2	0	0	1	4.718279880806222E+001	-2.1293682E-001	-2.1303490E-001	8.336446629502507E-001	1.7759540E-004
2	0	0	1	4.723279880679911E+001	-2.1793886E-001	-2.1803705E-001	8.261397613496753E-001	1.8012908E-004
2	0	0	0	4.728289880553348E+001	-2.2294901E-001	-2.2305284E-001	8.191019595863533E-001	1.8270302E-004
2	0	0	0	4.733299880426785E+001	-2.2795729E-001	-2.2805822E-001	8.120066910141723E-001	1.8518481E-004
2	0	0	0	4.738299880300474E+001	-2.3295972E-001	-2.3306818E-001	8.045408470516833E-001	1.8751288E-004
2	0	0	1	4.743309880173911E+001	-2.3796771E-001	-2.3806241E-001	7.972852219968924E-001	1.8980364E-004
2	0	0	1	4.748319880047347E+001	-2.4297808E-001	-2.4309114E-001	7.891285165585025E-001	1.9183014E-004
2	0	0	1	4.753319879921037E+001	-2.4798046E-001	-2.4806643E-001	7.813462341728403E-001	1.9382576E-004
2	0	0	0	4.758329879794474E+001	-2.5298688E-001	-2.5304955E-001	7.742333593897932E-001	1.9591941E-004
2	0	0	0	4.763339879667910E+001	-2.5799865E-001	-2.5807995E-001	7.665691048057823E-001	1.9783611E-004
2	0	0	0	4.768339879541600E+001	-2.6299939E-001	-2.6307192E-001	7.580557188888601E-001	1.9942317E-004
2	0	0	0	4.773339879415289E+001	-2.6799709E-001	-2.6808020E-001	7.491738075000738E-001	2.0083867E-004
2	0	0	1	4.778359879288473E+001	-2.7301943E-001	-2.7309200E-001	7.407935589154064E-001	2.0230480E-004
2	0	0	1	4.783359879162163E+001	-2.7801812E-001	-2.7809668E-001	7.329625930694856E-001	2.0383445E-004
2	0	0	1	4.788359879035852E+001	-2.8301799E-001	-2.8308597E-001	7.239484911708294E-001	2.0493966E-004
2	0	0	0	4.793379878909036E+001	-2.8804034E-001	-2.8811064E-001	7.152994649528104E-001	2.0608539E-004
2	0	0	0	4.798379878782725E+001	-2.9303718E-001	-2.9311121E-001	7.070067245344287E-001	2.0723160E-004
2	0	0	0	4.803379878656415E+001	-2.9803875E-001	-2.9812410E-001	6.991749773445530E-001	2.0844092E-004
2	0	0	1	4.808389878529852E+001	-3.0304971E-001	-3.0312356E-001	6.909163355285166E-001	2.0943303E-004
2	0	0	1	4.813399878403288E+001	-3.0805710E-001	-3.0813804E-001	6.839346040349543E-001	2.1074626E-004
2	0	0	1	4.818399878276978E+001	-3.1305927E-001	-3.1313416E-001	6.750054843573645E-001	2.1136728E-004
2	0	0	0	4.823409878150414E+001	-3.1806856E-001	-3.1815884E-001	6.660227738192135E-001	2.1190103E-004
2	0	0	0	4.828419878023851E+001	-3.2307813E-001	-3.2316285E-001	6.568989941386612E-001	2.1228535E-004
2	0	0	0	4.833419877897541E+001	-3.2808024E-001	-3.2813737E-001	6.490956914879717E-001	2.1299256E-004
2	0	0	1	4.838429877770977E+001	-3.3308756E-001	-3.3313367E-001	6.400143221424877E-001	2.1321033E-004
2	0	0	1	4.843439877644414E+001	-3.3809868E-001	-3.3815777E-001	6.305257184133746E-001	2.1321718E-004
2	0	0	1	4.848439877518103E+001	-3.4310013E-001	-3.4315467E-001	6.211905324104361E-001	2.1316443E-004
2	0	0	1	4.853439877391793E+001	-3.4809709E-001	-3.4817103E-001	6.114804083192067E-001	2.1289976E-004
2	0	0	0	4.858459877264977E+001	-3.5311940E-001	-3.5319746E-001	6.020295499692363E-001	2.1263531E-004
2	0	0	0	4.863459877138666E+001	-3.5811898E-001	-3.5820007E-001	5.930246044393623E-001	2.1242145E-004
2	0	0	0	4.868459877012356E+001	-3.6311817E-001	-3.6319596E-001	5.840775270228837E-001	2.1213459E-004
2	0	0	1	4.873479876885540E+001	-3.6814010E-001	-3.6821535E-001	5.746511208389316E-001	2.1159537E-004
2	0	0	1	4.878479876759229E+001	-3.7313798E-001	-3.7320626E-001	5.639843202888706E-001	2.1048248E-004
2	0	0	1	4.883479876632919E+001	-3.7813848E-001	-3.7820825E-001	5.534169630165446E-001	2.0930686E-004
2	0	0	0	4.888489876506355E+001	-3.8315040E-001	-3.8320979E-001	5.429205964949468E-001	2.0805249E-004
2	0	0	0	4.893499876379792E+001	-3.8815698E-001	-3.8823032E-001	5.322936932593674E-001	2.0665255E-004
2	0	0	0	4.898499876253481E+001	-3.9315927E-001	-3.9323211E-001	5.215137459206991E-001	2.0507595E-004
2	0	0	1	4.903509876126918E+001	-3.9816928E-001	-3.9824936E-001	5.108870879713110E-001	2.0346045E-004
2	0	0	1	4.908519876000355E+001	-4.0317804E-001	-4.0325740E-001	4.997004917774417E-001	2.0150792E-004
2	0	0	1	4.913519875874044E+001	-4.0817997E-001	-4.0824765E-001	4.888644629827592E-001	1.9957777E-004
2	0	0	0	4.918529875747481E+001	-4.1318834E-001	-4.1325152E-001	4.774671062126785E-001	1.9731400E-004
2	0	0	0	4.925039875583025E+001	-4.1969839E-001	-4.1976121E-001	4.632027942319352E-001	1.9443457E-004
2	0	0	0	4.931539875418821E+001	-4.2619851E-001	-4.2620286E-001	4.468620072512710E-001	1.9045387E-004
2	0	0	1	4.936559875292005E+001	-4.3122053E-001	-4.3124676E-001	4.345914560016020E-001	1.8741615E-004
2	0	0	1	4.941559875165694E+001	-4.3621707E-001	-4.3622839E-001	4.220384314187839E-001	1.8410514E-004
2	0	0	1	4.946559875039384E+001	-4.4121936E-001	-4.4124189E-001	4.098174887476583E-001	1.8082865E-004
2	0	0	0	4.951569874912821E+001	-4.4622993E-001	-4.4625261E-001	3.973038788867975E-001	1.7729790E-004
2	0	0	0	4.956579874786257E+001	-4.5123762E-001	-4.5125976E-001	3.841416537320531E-001	1.7334767E-004
2	0	0	0	4.961579874659947E+001	-4.5623994E-001	-4.5627484E-001	3.710968170848048E-001	1.6932214E-004
2	0	0	1	4.966589874533383E+001	-4.6124843E-001	-4.6127769E-001	3.580804080061455E-001	1.6517451E-004
2	0	0	1	4.971599874406820E+001	-4.6625835E-001	-4.6627384E-001	3.446084593858709E-001	1.6068191E-004
2	0	0	1	4.976599874280510E+001	-4.7126049E-001	-4.7128516E-001	3.303548471461770E-001	1.5569133E-004
2	0	0	0	4.981609874153946E+001	-4.7626752E-001	-4.7628519E-001	3.166712605758653E-001	1.5082583E-004
2	0	0	0	4.986619874027383E+001	-4.8127937E-001	-4.8131254E-001	3.023212891027027E-001	1.4551103E-004
2	0	0	0	4.991619873901072E+001	-4.8628032E-001	-4.8631018E-001	2.879072413364416E-001	1.4001223E-004
2	0	0	0	4.996619873774762E+001	-4.9127743E-001	-4.9130160E-001	2.729567626525036E-001	1.3410409E-004
2	0	0	1	5.001639873647946E+001	-4.9629980E-001	-4.9633634E-001	2.582491023879283E-001	1.2817842E-004
2	0	0	1	5.006639873521635E+001	-5.0129873E-001	-5.0134414E-001	2.433497949939363E-001	1.2200199E-004
2	0	0	1	5.011639873395325E+001	-5.0629818E-001	-5.0634372E-001	2.281946745685204E-001	1.1554494E-004
2	0	0	0	5.016659873268509E+001	-5.1132059E-001	-5.1135892E-001	2.129341303492183E-001	1.0888577E-004
2	0	0	0	5.021659873142198E+001	-5.1631796E-001	-5.1636541E-001	1.976065109846945E-001	1.0203716E-004
2	0	0	0	5.026659873015888E+001	-5.2131921E-001	-5.2134061E-001	1.818487999218501E-001	9.4805167E-005
2	0	0	1	5.031669872889324E+001	-5.2633071E-001	-5.2637702E-001	1.656800143667549E-001	8.7210152E-005
2	0	0	1	5.036679872762761E+001	-5.3133732E-001	-5.3139031E-001	1.495619549068893E-001	7.9475773E-005
2	0	0	1	5.041679872636450E+001	-5.3633988E-001	-5.3637922E-001	1.333807252249453E-001	7.1542650E-005
2	0	0	0	5.046689872509887E+001	-5.4134905E-001	-5.4139376E-001	1.168499868930697E-001	6.3261854E-005
2	0	0	0	5.051699872383324E+001	-5.4635823E-001	-5.4640675E-001	1.000529629060529E-001	5.4669614E-005
2	0	0	0	5.056699872257013E+001	-5.5136055E-001	-5.5141819E-001	8.308898627504135E-002	4.5816778E-005
2	0	0	1	5.061709872130450E+001	-5.5636829E-001	-5.5643195E-001	6.575542080135144E-002	3.6588415E-005
2	0	0	1	5.068239871965488E+001	-5.6289685E-001	-5.6294632E-001	4.306677752574103E-002	2.4244284E-005
2	0	0	0	5.074779871800274E+001	-5.6943876E-001	-5.6947476E-001	2.058610803219263E-002	1.1723268E-005
2	0	0	0	5.079779871673964E+001	-5.7444090E-001	-5.7448268E-001	2.887528419011038E-003	1.6588351E-006
2	0	0	0	5.084779871547653E+001	-5.7943726E-001	-5.7947803E-001	-1.484168918877710E-002	8.6004329E-006
2	0	0	1	5.089799871420837E+001	-5.8445942E-001	-5.8448708E-001	-3.290704896116103E-002	1.9233745E-005
2	0	0	1	5.094799871294526E+001	-5.8945978E-001	-5.8949286E-001	-5.109179519125073E-002	3.0118248E-005
2	0	0	1	5.099799871168216E+001	-5.9445828E-001	-5.9450799E-001	-6.932476207203719E-002	4.1214123E-005
2	0	0	0	5.104819871041400E+001	-5.9948021E-001	-5.9951967E-001	-8.778149762171372E-002	5.2626736E-005
2	0	0	0	5.111349870876438E+001	-6.0600746E-001	-6.0602367E-001	-1.118649856520715E-001	6.7792826E-005
2	0	0	1	5.117879870711477E+001	-6.1253858E-001	-6.1258745E-001	-1.363120706949388E-001	8.3503066E-005
2	0	0	1	5.122879870585166E+001	-6.1753863E-001	-6.1760014E-001	-1.551325472555797E-001	9.5809883E-005
2	0	0	0	5.127899870458350E+001	-6.2256062E-001	-6.2260967E-001	-1.739344419213622E-001	1.0829326E-004
2	0	0	0	5.132899870332039E+001	-6.2755764E-001	-6.2761366E-001	-1.928106442750042E-001	1.2101060E-004
2	0	0	0	5.137899870205729E+001	-6.3255948E-001	-6.3260704E-001	-2.115854581782597E-001	1.3385045E-004
2	0	0	1	5.142909870079166E+001	-6.3757044E-001	-6.3761783E-001	-2.305457683484473E-001	1.4700009E-004
2	0	0	1	5.147919869952602E+001	-6.4257777E-001	-6.4259881E-001	-2.495725321593112E-001	1.6037501E-004
2	0	0	1	5.152919869826292E+001	-6.4758027E-001	-6.4762092E-001	-2.686492772386382E-001	1.7398289E-004
2	0	0	0	5.157929869699728E+001	-6.5258890E-001	-6.5261781E-001	-2.874000433917354E-001	1.8756239E-004
2	0	0	0	5.162939869573165E+001	-6.5759844E-001	-6.5760368E-001	-3.061682013204847E-001	2.0133733E-004
2	0	0	0	5.167939869446855E+001	-6.6260093E-001	-6.6261572E-001	-3.250877712679525E-001	2.1540826E-004
2	0	0	1	5.172949869320291E+001	-6.6760814E-001	-6.6763026E-001	-3.437794969873034E-001	2.2951759E-004
2	0	0	1	5.177959869193728E+001	-6.7261946E-001	-6.7264855E-001	-3.626260056622845E-001	2.4391986E-004
2	0	0	1	5.182959869067417E+001	-6.7762107E-001	-6.7763722E-001	-3.815300891814797E-001	2.5853899E-004
2	0	0	1	5.187959868941107E+001	-6.8261784E-001	-6.8262488E-001	-4.003973876258093E-001	2.7332123E-004
2	0	0	0	5.192979868814291E+001	-6.8764013E-001	-6.8765450E-001	-4.188928660250939E-001	2.8805356E-004
2	0	0	0	5.197979868687980E+001	-6.9263929E-001	-6.9266474E-001	-4.375178594294189E-001	3.0305321E-004
2	0	0	0	5.202979868561670E+001	-6.9763863E-001	-6.9765484E-001	-4.556896197565719E-001	3.1791406E-004
2	0	0	1	5.207999868434854E+001	-7.0266080E-001	-7.0267266E-001	-4.742291422137637E-001	3.3322786E-004
2	0	0	1	5.212999868308543E+001	-7.0765859E-001	-7.0768195E-001	-4.925928582192851E-001	3.4859907E-004
2	0	0	1	5.217999868182233E+001	-7.1265960E-001	-7.1267849E-001	-5.110875912849533E-001	3.6424113E-004
2	0	0	0	5.223009868055669E+001	-7.1767133E-001	-7.1768111E-001	-5.292161050448625E-001	3.7980839E-004
2	0	0	0	5.228019867929106E+001	-7.2267753E-001	-7.2268385E-001	-5.472749523023204E-001	3.9550677E-004
2	0	0	0	5.233019867802795E+001	-7.2768027E-001	-7.2768885E-001	-5.649529541457579E-001	4.1110997E-004
2	0	0	1	5.238029867676232E+001	-7.3268980E-001	-7.3269546E-001	-5.826386748016485E-001	4.2689670E-004
2	0	0	1	5.243039867549669E+001	-7.3769850E-001	-7.3769772E-001	-6.002862376255633E-001	4.4282980E-004
2	0	0	1	5.248039867423358E+001	-7.4270087E-001	-7.4269998E-001	-6.177908261857166E-001	4.5883324E-004
2	0	0	0	5.253049867296795E+001	-7.4770910E-001	-7.4773431E-001	-6.356393368436990E-001	4.7528933E-004
2	0	0	0	5.258059867170232E+001	-7.5271928E-001	-7.5274098E-001	-6.524517762243622E-001	4.9112720E-004
2	0	0	0	5.263059867043921E+001	-7.5772178E-001	-7.5773180E-001	-6.693803686470057E-001	5.0721079E-004
2	0	0	1	5.268069866917358E+001	-7.6272762E-001	-7.6274741E-001	-6.863475487760340E-001	5.2350981E-004
2	0	0	1	5.273079866790795E+001	-7.6774001E-001	-7.6776719E-001	-7.026262459015236E-001	5.3945335E-004
2	0	0	1	5.278079866664484E+001	-7.7274019E-001	-7.7276540E-001	-7.189313801185637E-001	5.5556529E-004
2	0	0	1	5.283079866538174E+001	-7.7773839E-001	-7.7776790E-001	-7.355943925356923E-001	5.7212170E-004
2	0	0	0	5.288099866411358E+001	-7.8276074E-001	-7.8278530E-001	-7.510348300443823E-001	5.8789901E-004
2	0	0	0	5.293099866285047E+001	-7.8775954E-001	-7.8777951E-001	-7.670496992656588E-001	6.0426601E-004
2	0	0	0	5.298099866158736E+001	-7.9275912E-001	-7.9279667E-001	-7.831207138773451E-001	6.2085548E-004
2	0	0	1	5.303119866031921E+001	-7.9778159E-001	-7.9782927E-001	-7.984706459442315E-001	6.3704327E-004
2	0	0	1	5.308119865905610E+001	-8.0277807E-001	-8.0280930E-001	-8.134405720929978E-001	6.5303763E-004
2	0	0	1	5.313119865779299E+001	-8.0777979E-001	-8.0781937E-001	-8.287967818398556E-001	6.6951808E-004
2	0	0	0	5.318129865652736E+001	-8.1279063E-001	-8.1281853E-001	-8.436113901916258E-001	6.8570295E-004
2	0	0	0	5.323139865526173E+001	-8.1779855E-001	-8.1783855E-001	-8.587309793388727E-001	7.0230331E-004
2	0	0	0	5.328139865399862E+001	-8.2280064E-001	-8.2284653E-001	-8.725675158287061E-001	7.1798917E-004
2	0	0	1	5.333149865273299E+001	-8.2780993E-001	-8.2786095E-001	-8.865215379603804E-001	7.3391659E-004
2	0	0	1	5.338159865146736E+001	-8.3281893E-001	-8.3287543E-001	-9.011192566781379E-001	7.5052009E-004
2	0	0	1	5.343159865020425E+001	-8.3782178E-001	-8.3785504E-001	-9.146541560629444E-001	7.6634757E-004
2	0	0	0	5.348169864893862E+001	-8.4282833E-001	-8.4285724E-001	-9.288209542146921E-001	7.8286347E-004
2	0	0	0	5.353179864767299E+001	-8.4783965E-001	-8.4786689E-001	-9.416199160275802E-001	7.9836836E-004
2	0	0	0	5.358179864640988E+001	-8.5284114E-001	-8.5289365E-001	-9.550142047356314E-001	8.1452553E-004
2	0	0	0	5.363179864514677E+001	-8.5783851E-001	-8.5787123E-001	-9.684062420342858E-001	8.3076785E-004
2	0	0	1	5.368199864387861E+001	-8.6286068E-001	-8.6290574E-001	-9.807754039037579E-001	8.4631675E-004
2	0	0	1	5.373199864261551E+001	-8.6786038E-001	-8.6790431E-001	-9.930531909959646E-001	8.6187513E-004
2	0	0	1	5.378199864135240E+001	-8.7285894E-001	-8.7289155E-001	-1.004670740046037E+000	8.7696861E-004
2	0	0	0	5.383219864008424E+001	-8.7788147E-001	-8.7789732E-001	-1.016906997742497E+000	8.9273992E-004
2	0	0	0	5.389749863843463E+001	-8.8440752E-001	-8.8447911E-001	-1.033057650775884E+000	9.1371790E-004
2	0	0	1	5.396279863678501E+001	-8.9093906E-001	-8.9103615E-001	-1.050296796246992E+000	9.3585241E-004
2	0	0	1	5.401279863552190E+001	-8.9593983E-001	-8.9602757E-001	-1.061408072031867E+000	9.5105090E-004
2	0	0	0	5.406289863425627E+001	-9.0095156E-001	-9.0104657E-001	-1.071809525698328E+000	9.6575031E-004
2	0	0	0	5.411299863299064E+001	-9.0595847E-001	-9.0606302E-001	-1.082731873741778E+000	9.8102330E-004
2	0	0	0	5.416299863172753E+001	-9.1096056E-001	-9.1106766E-001	-1.094418429051350E+000	9.9708920E-004
2	0	0	1	5.421309863046190E+001	-9.1597044E-001	-9.1605830E-001	-1.105054341927119E+000	1.0122942E-003
2	0	0	1	5.426319862919627E+001	-9.2097878E-001	-9.2106682E-001	-1.116354311515320E+000	1.0282369E-003
2	0	0	1	5.431319862793316E+001	-9.2598093E-001	-9.2607999E-001	-1.126780124908466E+000	1.0434885E-003
2	0	0	0	5.436329862666753E+001	-9.3098944E-001	-9.3108946E-001	-1.137009470318528E+000	1.0586575E-003
2	0	0	0	5.441339862540190E+001	-9.3599981E-001	-9.3608975E-001	-1.146639852949162E+000	1.0733578E-003
2	0	0	0	5.446339862413879E+001	-9.4100177E-001	-9.4108945E-001	-1.157904622124323E+000	1.0896919E-003
2	0	0	1	5.451349862287316E+001	-9.4600862E-001	-9.4611651E-001	-1.168372647530111E+000	1.1054167E-003
2	0	0	1	5.456359862160753E+001	-9.5102024E-001	-9.5111477E-001	-1.178934844927682E+000	1.1213024E-003
2	0	0	1	5.461359862034442E+001	-9.5602071E-001	-9.5609206E-001	-1.190121045323905E+000	1.1378652E-003
2	0	0	1	5.466359861908131E+001	-9.6101868E-001	-9.6109170E-001	-1.200664286061998E+000	1.1539485E-003
2	0	0	0	5.471379861781315E+001	-9.6604079E-001	-9.6613151E-001	-1.211601039436340E+000	1.1705660E-003
2	0	0	0	5.476379861655005E+001	-9.7103971E-001	-9.7112775E-001	-1.222689308355651E+000	1.1873875E-003
2	0	0	0	5.481379861528694E+001	-9.7603965E-001	-9.7611994E-001	-1.231721611410903E+000	1.2023080E-003
2	0	0	1	5.486399861401878E+001	-9.8106182E-001	-9.8116869E-001	-1.241865161310612E+000	1.2184792E-003
2	0	0	1	5.491399861275568E+001	-9.8605877E-001	-9.8617840E-001	-1.252599455295375E+000	1.2352865E-003
2	0	0	1	5.496399861149257E+001	-9.9106002E-001	-9.9115771E-001	-1.261743744852755E+000	1.2505871E-003
2	0	0	0	5.501409861022694E+001	-9.9607110E-001	-9.9615395E-001	-1.270876465074945E+000	1.2659886E-003
2	0	0	0	5.504619860941602E+001	-9.9927753E-001	-9.9936110E-001	-1.277655357255268E+000	1.2768391E-003
2	0	0	0	5.505339860923414E+001	-9.9999899E-001	-1.0000659E+000	-1.267872691154480E+000	1.2679562E-003