EC-Lab ASCII FILE
Nb header lines : 55                          

I-V Characterization

Run on channel : 1 (SN 6514)
User : 
CE vs. WE compliance from -10 V to 10 V
Electrode connection : standard
Ewe ctrl range : min = -1.10 V, max = 0.20 V
Safety Limits :
	Do not start on E overload
Acquisition started on : 06/15/2016 18:14:15
Saved on :
	File : B125-G54-UN-G-D1GB-C7 BW 10mVs dark_C01.mpr
	Directory : E:\EC-Lab measurements\B125-G54-UN-G-D1GB\
	Host : 10.0.2.15
Device : VSP (SN 0295)
Address : USB
EC-Lab for windows v11.01 (software)
Internet server v11.00 (firmware)
Command interpretor v11.00 (firmware)
Electrode material : 
Initial state : 
Electrolyte : 
Comments : 
Electrode surface area : 0.001 cm²
Characteristic mass : 0.001 g
Equivalent Weight : 0.000 g/eq.
Density : 0.000 g/cm3
tR (h:m:s)          0:00:0.0000         
dER/dt (mV/h)       0.0                 
dER (mV)            0                   
dtR (s)             0.0000              
dE/dt               10.000              
dE/dt unit          mV/s                
Ei (V)              -1.000              
vs.                 Ref                 
EL (V)              0.100               
vs.                 Ref                 
record              <I>                 
dI                  0.000               
unit dI             µA                  
tI (s)              0.1000              
step percent        100                 
N                   100                 
E range min (V)     -1.100              
E range max (V)     0.200               
I Range             Auto                
I Range min         Unset               
I Range max         Unset               
I Range init        Unset               
Bandwidth           5                   

mode	ox/red	error	control changes	time/s	control/V	Ewe/V	<I>/mA	P/W
2	1	0	0	8.499999785271939E-002	-9.9972111E-001	-9.9965596E-001	-7.301081061363218E-002	7.2985691E-005
2	1	0	1	3.377999914664542E-001	-9.9719477E-001	-9.9721783E-001	-8.826939527657851E-002	8.8023815E-005
2	1	0	0	8.383999788202345E-001	-9.9218845E-001	-9.9223095E-001	-9.916002523386491E-002	9.8389646E-005
2	1	0	1	1.338999966174015E+000	-9.8718262E-001	-9.8723882E-001	-1.001671906672288E-001	9.8888937E-005
2	1	0	0	1.839599953527795E+000	-9.8217642E-001	-9.8223686E-001	-9.890058990860950E-002	9.7143806E-005
2	1	0	1	2.340199940881575E+000	-9.7717053E-001	-9.7722965E-001	-9.720869958223866E-002	9.4995223E-005
2	1	0	0	2.840799928235356E+000	-9.7216457E-001	-9.7220957E-001	-9.545870391493549E-002	9.2805865E-005
2	1	0	0	3.341599915584084E+000	-9.6715641E-001	-9.6720839E-001	-9.372886259859718E-002	9.0655340E-005
2	1	0	1	3.842199902937864E+000	-9.6215063E-001	-9.6219319E-001	-9.210871007264843E-002	8.8626373E-005
2	1	0	0	4.342799890291644E+000	-9.5714438E-001	-9.5715773E-001	-9.054737263214840E-002	8.6668115E-005
2	1	0	1	4.843399877645425E+000	-9.5213872E-001	-9.5219004E-001	-8.894172664352484E-002	8.4689425E-005
2	1	0	0	5.343999864999205E+000	-9.4713229E-001	-9.4717246E-001	-8.739182180016103E-002	8.2775128E-005
2	1	0	1	5.844599852352985E+000	-9.4212669E-001	-9.4217592E-001	-8.582544264507214E-002	8.0862665E-005
2	1	0	0	6.345199839706765E+000	-9.3712044E-001	-9.3717629E-001	-8.429005579560855E-002	7.8994643E-005
2	1	0	1	6.845799827060546E+000	-9.3211466E-001	-9.3216950E-001	-8.279298118434497E-002	7.7177094E-005
2	1	0	0	7.346499814411800E+000	-9.2710739E-001	-9.2716753E-001	-8.126804984332603E-002	7.5349097E-005
2	1	0	0	7.847199801763054E+000	-9.2210078E-001	-9.2214566E-001	-7.978399707154848E-002	7.3572468E-005
2	1	0	1	8.347799789116834E+000	-9.1709447E-001	-9.1714603E-001	-7.830500762429637E-002	7.1817129E-005
2	1	0	0	8.848399776470615E+000	-9.1208875E-001	-9.1215146E-001	-7.684212488852937E-002	7.0091657E-005
2	1	0	1	9.348999763824395E+000	-9.0708238E-001	-9.0713155E-001	-7.537223907578672E-002	6.8372537E-005
2	1	0	0	9.849599751178175E+000	-9.0207654E-001	-9.0212756E-001	-7.390765529240140E-002	6.6674133E-005
2	1	0	1	1.035019973853196E+001	-8.9707035E-001	-8.9712638E-001	-7.246366835298623E-002	6.5009066E-005
2	1	0	0	1.085079972588574E+001	-8.9206445E-001	-8.9211249E-001	-7.102826315392335E-002	6.3365202E-005
2	1	0	1	1.135139971323952E+001	-8.8705838E-001	-8.8711107E-001	-6.960888300574020E-002	6.1750812E-005
2	1	0	0	1.185209970059077E+001	-8.8205129E-001	-8.8208687E-001	-6.822503616516107E-002	6.0180409E-005
2	1	0	0	1.235279968794202E+001	-8.7704456E-001	-8.7709785E-001	-6.684725896834331E-002	5.8631587E-005
2	1	0	1	1.285339967529580E+001	-8.7203830E-001	-8.7210965E-001	-6.550898837271801E-002	5.7131019E-005
2	1	0	0	1.335399966264958E+001	-8.6703265E-001	-8.6711186E-001	-6.414911975834875E-002	5.5624463E-005
2	1	0	1	1.385459965000337E+001	-8.6202633E-001	-8.6208862E-001	-6.280761883319652E-002	5.4145734E-005
2	1	0	0	1.435519963735715E+001	-8.5702056E-001	-8.5708606E-001	-6.146814152700664E-002	5.2683488E-005
2	1	0	1	1.485579962471093E+001	-8.5201430E-001	-8.5207874E-001	-6.014653311225752E-002	5.1249583E-005
2	1	0	0	1.535639961206471E+001	-8.4700859E-001	-8.4707987E-001	-5.885149137932705E-002	4.9851915E-005
2	1	0	1	1.585699959941849E+001	-8.4200227E-001	-8.4205222E-001	-5.761107966602363E-002	4.8511538E-005
2	1	0	0	1.635769958676974E+001	-8.3699554E-001	-8.3706588E-001	-5.632270324613398E-002	4.7145812E-005
2	1	0	0	1.685839957412099E+001	-8.3198833E-001	-8.3205497E-001	-5.510162543511453E-002	4.5847581E-005
2	1	0	1	1.735899956147478E+001	-8.2698250E-001	-8.2706088E-001	-5.387945695310292E-002	4.4561591E-005
2	1	0	0	1.785959954882856E+001	-8.2197624E-001	-8.2205290E-001	-5.265909981148054E-002	4.3288564E-005
2	1	0	1	1.836019953618234E+001	-8.1697041E-001	-8.1703776E-001	-5.146036497871165E-002	4.2045060E-005
2	1	0	0	1.886079952353612E+001	-8.1196427E-001	-8.1203145E-001	-5.028089411516490E-002	4.0829666E-005
2	1	0	1	1.936139951088990E+001	-8.0695838E-001	-8.0702394E-001	-4.914940330165662E-002	3.9664745E-005
2	1	0	0	1.986199949824368E+001	-8.0195230E-001	-8.0200511E-001	-4.796646335153287E-002	3.8469349E-005
2	1	0	1	2.036259948559746E+001	-7.9694617E-001	-7.9701281E-001	-4.682752877657820E-002	3.7322141E-005
2	1	0	1	2.086339947294618E+001	-7.9193836E-001	-7.9200089E-001	-4.569608570827588E-002	3.6191341E-005
2	1	0	0	2.136399946029997E+001	-7.8693223E-001	-7.8697747E-001	-4.456871561755360E-002	3.5074576E-005
2	1	0	1	2.186459944765375E+001	-7.8192645E-001	-7.8197759E-001	-4.348616995007998E-002	3.4005210E-005
2	1	0	0	2.236519943500753E+001	-7.7692014E-001	-7.7696925E-001	-4.240940118025811E-002	3.2950800E-005
2	1	0	1	2.286579942236131E+001	-7.7191436E-001	-7.7196640E-001	-4.133084635739315E-002	3.1906024E-005
2	1	0	0	2.336639940971509E+001	-7.6690811E-001	-7.6696241E-001	-4.027673604668934E-002	3.0890744E-005
2	1	0	1	2.386699939706887E+001	-7.6190245E-001	-7.6194572E-001	-3.926989821416566E-002	2.9921532E-005
2	1	0	0	2.436759938442265E+001	-7.5689614E-001	-7.5694317E-001	-3.828022343106924E-002	2.8975954E-005
2	1	0	1	2.486829937177390E+001	-7.5188935E-001	-7.5192511E-001	-3.732335914889259E-002	2.8064371E-005
2	1	0	1	2.536899935912516E+001	-7.4688232E-001	-7.4690777E-001	-3.633865129611169E-002	2.7141621E-005
2	1	0	0	2.586959934647894E+001	-7.4187636E-001	-7.4190688E-001	-3.537584471048833E-002	2.6245583E-005
2	1	0	1	2.637019933383272E+001	-7.3687017E-001	-7.3690188E-001	-3.442263190750355E-002	2.5366102E-005
2	1	0	0	2.687079932118650E+001	-7.3186433E-001	-7.3190075E-001	-3.348516258243106E-002	2.4507815E-005
2	1	0	1	2.737139930854028E+001	-7.2685814E-001	-7.2688788E-001	-3.259600057362766E-002	2.3693638E-005
2	1	0	0	2.787199929589406E+001	-7.2185218E-001	-7.2189426E-001	-3.173595928399497E-002	2.2910008E-005
2	1	0	1	2.837259928324784E+001	-7.1684611E-001	-7.1687925E-001	-3.084713526999566E-002	2.2113671E-005
2	1	0	0	2.887319927060162E+001	-7.1184015E-001	-7.1187586E-001	-2.997326021501517E-002	2.1337240E-005
2	1	0	1	2.937389925795287E+001	-7.0683318E-001	-7.0687807E-001	-2.912016046500211E-002	2.0584403E-005
2	1	0	1	2.987459924530413E+001	-7.0182604E-001	-7.0186967E-001	-2.827898137749385E-002	1.9848159E-005
2	1	0	0	3.037519923265791E+001	-6.9682014E-001	-6.9685423E-001	-2.748349596897187E-002	1.9151990E-005
2	1	0	1	3.087579922001169E+001	-6.9181401E-001	-6.9184697E-001	-2.668406791402998E-002	1.8461291E-005
2	1	0	0	3.137639920736547E+001	-6.8680817E-001	-6.8683529E-001	-2.591491565365844E-002	1.7799279E-005
2	1	0	1	3.187699919471925E+001	-6.8180203E-001	-6.8182766E-001	-2.514374629919154E-002	1.7143702E-005
2	1	0	0	3.237759918207303E+001	-6.7679626E-001	-6.7683196E-001	-2.439940702717228E-002	1.6514299E-005
2	1	0	1	3.287819916942681E+001	-6.7179000E-001	-6.7183608E-001	-2.368572310388142E-002	1.5912923E-005
2	1	0	0	3.337879915678059E+001	-6.6678423E-001	-6.6681880E-001	-2.297189625032084E-002	1.5318092E-005
2	1	0	1	3.387949914413184E+001	-6.6177708E-001	-6.6181046E-001	-2.226241302977221E-002	1.4733498E-005
2	1	0	1	3.438019913148310E+001	-6.5677029E-001	-6.5680772E-001	-2.157483914116887E-002	1.4170521E-005
2	1	0	0	3.488079911883688E+001	-6.5176398E-001	-6.5182275E-001	-2.091153987257877E-002	1.3630617E-005
2	1	0	1	3.538139910619066E+001	-6.4675808E-001	-6.4680725E-001	-2.026622892962607E-002	1.3108344E-005
2	1	0	0	3.588199909354444E+001	-6.4175200E-001	-6.4180934E-001	-1.962135496844236E-002	1.2593169E-005
2	1	0	1	3.638259908089822E+001	-6.3674599E-001	-6.3681114E-001	-1.902091542403117E-002	1.2112730E-005
2	1	0	0	3.688319906825200E+001	-6.3173991E-001	-6.3183081E-001	-1.841983075794612E-002	1.1638216E-005
2	1	0	1	3.738379905560578E+001	-6.2673390E-001	-6.2681031E-001	-1.783665966327908E-002	1.1180202E-005
2	1	0	0	3.788439904295956E+001	-6.2172788E-001	-6.2180555E-001	-1.724759680344607E-002	1.0724651E-005
2	1	0	0	3.838519903030829E+001	-6.1671990E-001	-6.1679232E-001	-1.668752967781501E-002	1.0292740E-005
2	1	0	1	3.888579901766207E+001	-6.1171395E-001	-6.1178893E-001	-1.613678719531997E-002	9.8723076E-006
2	1	0	0	3.938639900501585E+001	-6.0670781E-001	-6.0677755E-001	-1.559346221506794E-002	9.4617626E-006
2	1	0	1	3.988699899236963E+001	-6.0170197E-001	-6.0176986E-001	-1.505809868865732E-002	9.0615104E-006
2	1	0	0	4.038759897972341E+001	-5.9669590E-001	-5.9676427E-001	-1.453860716653202E-002	8.6761211E-006
2	1	0	1	4.088819896707719E+001	-5.9168994E-001	-5.9175932E-001	-1.404112239862360E-002	8.3089653E-006
2	1	0	0	4.138879895443097E+001	-5.8668387E-001	-5.8675331E-001	-1.355120701672755E-002	7.9512156E-006
2	1	0	1	4.188939894178475E+001	-5.8167791E-001	-5.8174592E-001	-1.308605558243831E-002	7.6127594E-006
2	1	0	0	4.239009892913600E+001	-5.7667089E-001	-5.7674563E-001	-1.264608289728549E-002	7.2935732E-006
2	1	0	0	4.289079891648726E+001	-5.7166398E-001	-5.7173043E-001	-1.219375745684753E-002	6.9715425E-006
2	1	0	1	4.339139890384104E+001	-5.6665778E-001	-5.6672579E-001	-1.176248732127297E-002	6.6661050E-006
2	1	0	0	4.389199889119482E+001	-5.6165183E-001	-5.6172144E-001	-1.136176032338665E-002	6.3821444E-006
2	1	0	1	4.439259887854860E+001	-5.5664575E-001	-5.5672604E-001	-1.095138367336335E-002	6.0969205E-006
2	1	0	0	4.489319886590238E+001	-5.5163980E-001	-5.5171245E-001	-1.057569591937251E-002	5.8347432E-006
2	1	0	1	4.539379885325616E+001	-5.4663372E-001	-5.4670358E-001	-1.017891866167084E-002	5.5648511E-006
2	1	0	0	4.589439884060994E+001	-5.4162771E-001	-5.4168230E-001	-9.818643327723975E-003	5.3185854E-006
2	1	0	1	4.639499882796372E+001	-5.3662163E-001	-5.3668135E-001	-9.452330594115793E-003	5.0728895E-006
2	1	0	0	4.689569881531497E+001	-5.3161460E-001	-5.3166991E-001	-9.095619945484690E-003	4.8358675E-006
2	1	0	0	4.739639880266623E+001	-5.2660763E-001	-5.2666938E-001	-8.762664407972354E-003	4.6150271E-006
2	1	0	1	4.789699879002001E+001	-5.2160168E-001	-5.2167201E-001	-8.441215060273094E-003	4.4035455E-006
2	1	0	0	4.839759877737379E+001	-5.1659566E-001	-5.1666147E-001	-8.125916425607532E-003	4.1983481E-006
2	1	0	1	4.889819876472757E+001	-5.1158959E-001	-5.1166040E-001	-7.817318882696420E-003	3.9998126E-006
2	1	0	0	4.939879875208135E+001	-5.0658369E-001	-5.0664556E-001	-7.534777788844971E-003	3.8174617E-006
2	1	0	1	4.989939873943513E+001	-5.0157768E-001	-5.0163764E-001	-7.246759021797444E-003	3.6352471E-006
2	1	0	0	5.039999872678891E+001	-4.9657160E-001	-4.9663293E-001	-6.976191774958326E-003	3.4646066E-006
2	1	0	1	5.090059871414269E+001	-4.9156559E-001	-4.9162814E-001	-6.712737289837373E-003	3.3001706E-006
2	1	0	0	5.140129870149394E+001	-4.8655865E-001	-4.8661885E-001	-6.461136382467050E-003	3.1441107E-006
2	1	0	0	5.190199868884520E+001	-4.8155162E-001	-4.8160490E-001	-6.207400815640626E-003	2.9895148E-006
2	1	0	1	5.240259867619898E+001	-4.7654563E-001	-4.7659394E-001	-5.958672684515449E-003	2.8398672E-006
2	1	0	0	5.290319866355276E+001	-4.7153965E-001	-4.7159100E-001	-5.725708440105164E-003	2.7001925E-006
2	1	0	1	5.340379865090654E+001	-4.6653360E-001	-4.6657124E-001	-5.513855881074198E-003	2.5726065E-006
2	1	0	0	5.390439863826032E+001	-4.6152756E-001	-4.6157569E-001	-5.295841635078388E-003	2.4444316E-006
2	1	0	1	5.440499862561410E+001	-4.5652154E-001	-4.5657107E-001	-5.086018157428263E-003	2.3221287E-006
2	1	0	0	5.492319861252327E+001	-4.5133951E-001	-4.5138100E-001	-4.875928082459936E-003	2.2009012E-006
2	1	0	1	5.544139859943243E+001	-4.4615752E-001	-4.4618937E-001	-4.668259907856215E-003	2.0829279E-006
2	1	0	0	5.594199858678621E+001	-4.4115153E-001	-4.4119519E-001	-4.485064689966255E-003	1.9787890E-006
2	1	0	1	5.644259857413999E+001	-4.3614548E-001	-4.3619084E-001	-4.303066507921810E-003	1.8769582E-006
2	1	0	0	5.694319856149377E+001	-4.3113950E-001	-4.3119082E-001	-4.126822130770499E-003	1.7794478E-006
2	1	0	1	5.744379854884755E+001	-4.2613348E-001	-4.2615566E-001	-3.958497610506723E-003	1.6869361E-006
2	1	0	0	5.794439853620133E+001	-4.2112744E-001	-4.2117271E-001	-3.794788002287469E-003	1.5982612E-006
2	1	0	1	5.844499852355511E+001	-4.1612145E-001	-4.1616556E-001	-3.638217573971675E-003	1.5141009E-006
2	1	0	0	5.894569851090637E+001	-4.1111445E-001	-4.1115588E-001	-3.488848162067248E-003	1.4344604E-006
2	1	0	0	5.944639849825762E+001	-4.0610752E-001	-4.0615541E-001	-3.348710902787235E-003	1.3600970E-006
2	1	0	1	5.994699848561140E+001	-4.0110153E-001	-4.0115595E-001	-3.210494805202160E-003	1.2879091E-006
2	1	0	0	6.044759847296518E+001	-3.9609548E-001	-3.9614370E-001	-3.074040220160935E-003	1.2177617E-006
2	1	0	1	6.094819846031896E+001	-3.9108953E-001	-3.9114398E-001	-2.947501486516423E-003	1.1528974E-006
2	1	0	0	6.144879844767274E+001	-3.8608348E-001	-3.8611677E-001	-2.830797660442280E-003	1.0930185E-006
2	1	0	1	6.194939843502652E+001	-3.8107747E-001	-3.8112170E-001	-2.698440285462424E-003	1.0284341E-006
2	1	0	0	6.244999842238030E+001	-3.7607145E-001	-3.7612143E-001	-2.579206570896896E-003	9.7009490E-007
2	1	0	1	6.295059840973408E+001	-3.7106547E-001	-3.7110651E-001	-2.478529306172039E-003	9.1979837E-007
2	1	0	0	6.345129839708534E+001	-3.6605844E-001	-3.6611095E-001	-2.375861862824001E-003	8.6982902E-007
2	1	0	0	6.395199838443659E+001	-3.6105147E-001	-3.6110246E-001	-2.271945654846091E-003	8.2040515E-007
2	1	0	1	6.445259837179037E+001	-3.5604540E-001	-3.5610616E-001	-2.178646099224107E-003	7.7582928E-007
2	1	0	0	6.495319835914415E+001	-3.5103938E-001	-3.5108534E-001	-2.084547155243435E-003	7.3185396E-007
2	1	0	1	6.545379834649793E+001	-3.4603339E-001	-3.4606761E-001	-1.989280921818395E-003	6.8842570E-007
2	1	0	0	6.595439833385171E+001	-3.4102729E-001	-3.4106177E-001	-1.898872533930287E-003	6.4763282E-007
2	1	0	1	6.645499832120549E+001	-3.3602130E-001	-3.3604744E-001	-1.819965336771701E-003	6.1159471E-007
2	1	0	0	6.695559830855927E+001	-3.3101532E-001	-3.3104172E-001	-1.738985173678033E-003	5.7567667E-007
2	1	0	1	6.745619829591305E+001	-3.2600930E-001	-3.2604185E-001	-1.659171753534522E-003	5.4095943E-007
2	1	0	0	6.795689828326431E+001	-3.2100233E-001	-3.2105020E-001	-1.582020464165227E-003	5.0790800E-007
2	1	0	0	6.845759827061556E+001	-3.1599531E-001	-3.1604719E-001	-1.515107155792235E-003	4.7884538E-007
2	1	0	1	6.895819825796934E+001	-3.1098932E-001	-3.1104356E-001	-1.448414820788051E-003	4.5052010E-007
2	1	0	0	6.945879824532312E+001	-3.0598330E-001	-3.0604276E-001	-1.375268309126354E-003	4.2089090E-007
2	1	0	1	6.995939823267690E+001	-3.0097735E-001	-3.0102775E-001	-1.308799128972751E-003	3.9398486E-007
2	1	0	0	7.045999822003068E+001	-2.9597127E-001	-2.9602873E-001	-1.251522646327073E-003	3.7048667E-007
2	1	0	1	7.096059820738446E+001	-2.9096526E-001	-2.9101038E-001	-1.193390689637589E-003	3.4728907E-007
2	1	0	0	7.146119819473824E+001	-2.8595927E-001	-2.8599826E-001	-1.135900203563980E-003	3.2486548E-007
2	1	0	1	7.196189818208950E+001	-2.8095227E-001	-2.8099805E-001	-1.082878187109410E-003	3.0428666E-007
2	1	0	1	7.246259816944075E+001	-2.7594525E-001	-2.7599281E-001	-1.042090145500333E-003	2.8760940E-007
2	1	0	0	7.296319815679453E+001	-2.7093923E-001	-2.7098402E-001	-9.941523952473920E-004	2.6939941E-007
2	1	0	1	7.346379814414831E+001	-2.6593316E-001	-2.6598480E-001	-9.422545279950331E-004	2.5062539E-007
2	1	0	0	7.396439813150209E+001	-2.6092717E-001	-2.6099581E-001	-9.005571578782831E-004	2.3504164E-007
2	1	0	1	7.446499811885587E+001	-2.5592121E-001	-2.5596470E-001	-8.636127786341135E-004	2.2105438E-007
2	1	0	0	7.496559810620965E+001	-2.5091514E-001	-2.5096679E-001	-8.204259545583920E-004	2.0589967E-007
2	1	0	1	7.546619809356343E+001	-2.4590911E-001	-2.4597843E-001	-7.796141546143019E-004	1.9176827E-007
2	1	0	0	7.596679808091722E+001	-2.4090312E-001	-2.4096757E-001	-7.431101412823339E-004	1.7906545E-007
2	1	0	1	7.646749806826847E+001	-2.3589611E-001	-2.3597439E-001	-7.043602336826195E-004	1.6621098E-007
2	1	0	1	7.696819805561972E+001	-2.3088913E-001	-2.3096076E-001	-6.790831306825538E-004	1.5684155E-007
2	1	0	0	7.746879804297350E+001	-2.2588311E-001	-2.2594231E-001	-6.475558321643801E-004	1.4631026E-007
2	1	0	1	7.796939803032728E+001	-2.2087710E-001	-2.2095287E-001	-6.191317716172486E-004	1.3679895E-007
2	1	0	0	7.846999801768106E+001	-2.1587110E-001	-2.1594648E-001	-5.852666838817729E-004	1.2638628E-007
2	1	0	1	7.897059800503484E+001	-2.1086511E-001	-2.1092789E-001	-5.596793965517389E-004	1.1805199E-007
2	1	0	0	7.947119799238862E+001	-2.0585907E-001	-2.0593260E-001	-5.336220959038865E-004	1.0989019E-007
2	1	0	1	7.997179797974241E+001	-2.0085308E-001	-2.0092788E-001	-5.101436745983540E-004	1.0250209E-007
2	1	0	0	8.047239796709619E+001	-1.9584705E-001	-1.9591621E-001	-4.806512240194388E-004	9.4167362E-008
2	1	0	1	8.097309795444744E+001	-1.9084005E-001	-1.9091587E-001	-4.544859859901733E-004	8.6768587E-008
2	1	0	1	8.147379794179869E+001	-1.8583307E-001	-1.8590511E-001	-4.316997638057417E-004	8.0255191E-008
2	1	0	0	8.197439792915247E+001	-1.8082707E-001	-1.8088716E-001	-4.110555396546678E-004	7.4354674E-008
2	1	0	1	8.247499791650625E+001	-1.7582099E-001	-1.7588304E-001	-3.932582395483630E-004	6.9167456E-008
2	1	0	0	8.297559790386003E+001	-1.7081499E-001	-1.7087229E-001	-3.744242785573707E-004	6.3978732E-008
2	1	0	1	8.347619789121381E+001	-1.6580902E-001	-1.6586140E-001	-3.532010177486741E-004	5.8582415E-008
2	1	0	0	8.397679787856760E+001	-1.6080301E-001	-1.6085027E-001	-3.333119905596380E-004	5.3613324E-008
2	1	0	1	8.447739786592138E+001	-1.5579697E-001	-1.5585713E-001	-3.187125455937244E-004	4.9673623E-008
2	1	0	0	8.497799785327516E+001	-1.5079097E-001	-1.5084895E-001	-3.014730805081141E-004	4.5476899E-008
2	1	0	1	8.547869784062641E+001	-1.4578396E-001	-1.4582920E-001	-2.855930527310337E-004	4.1647805E-008
2	1	0	1	8.597939782797766E+001	-1.4077696E-001	-1.4082499E-001	-2.664012093455724E-004	3.7515946E-008
2	1	0	0	8.647999781533144E+001	-1.3577096E-001	-1.3580705E-001	-2.527493357577277E-004	3.4325144E-008
2	1	0	1	8.698059780268522E+001	-1.3076492E-001	-1.3079956E-001	-2.349482907246809E-004	3.0731133E-008
2	1	0	0	8.748119779003900E+001	-1.2575890E-001	-1.2578456E-001	-2.209198396340775E-004	2.7788305E-008
2	1	0	1	8.798179777739279E+001	-1.2075283E-001	-1.2077189E-001	-2.063415505099788E-004	2.4920260E-008
2	1	0	0	8.848239776474657E+001	-1.1574685E-001	-1.1577809E-001	-1.922114844730544E-004	2.2253879E-008
2	1	0	1	8.898299775210035E+001	-1.1074086E-001	-1.1078280E-001	-1.792874852535953E-004	1.9861970E-008
2	1	0	0	8.948359773945413E+001	-1.0573485E-001	-1.0576292E-001	-1.639375807161621E-004	1.7338518E-008
2	1	0	0	8.998439772680285E+001	-1.0072687E-001	-1.0075752E-001	-1.533151345131914E-004	1.5447654E-008
2	1	0	1	9.048499771415663E+001	-9.5720880E-002	-9.5736302E-002	-1.436430862874435E-004	1.3751858E-008
2	1	0	0	9.098559770151041E+001	-9.0714820E-002	-9.0755604E-002	-1.297245690077596E-004	1.1773231E-008
2	1	0	1	9.148619768886419E+001	-8.5708819E-002	-8.5748352E-002	-1.161159060250210E-004	9.9567474E-009
2	1	0	0	9.198679767621798E+001	-8.0702826E-002	-8.0727331E-002	-1.067995753599662E-004	8.6216447E-009
2	1	0	1	9.248739766357176E+001	-7.5696781E-002	-7.5729162E-002	-9.750234279370172E-005	7.3837705E-009
2	1	0	0	9.298799765092554E+001	-7.0690766E-002	-7.0729241E-002	-8.609053765293436E-005	6.0891185E-009
2	1	0	1	9.348859763827932E+001	-6.5684773E-002	-6.5720491E-002	-7.728880291284050E-005	5.0794582E-009
2	1	0	0	9.398929762563057E+001	-6.0677767E-002	-6.0710974E-002	-6.484585836115977E-005	3.9368553E-009
2	1	0	0	9.448999761298182E+001	-5.5670779E-002	-5.5708967E-002	-5.496279604129536E-005	3.0619205E-009
2	1	0	1	9.499059760033560E+001	-5.0664775E-002	-5.0714131E-002	-4.566422650390586E-005	2.3158215E-009
2	1	0	0	9.549119758768938E+001	-4.5658723E-002	-4.5700945E-002	-3.527702001216522E-005	1.6121932E-009
2	1	0	1	9.599179757504317E+001	-4.0652730E-002	-4.0690560E-002	-2.482772705844117E-005	1.0102541E-009
2	1	0	0	9.649239756239695E+001	-3.5646725E-002	-3.5686873E-002	-1.517320008919987E-005	5.4148408E-010
2	1	0	1	9.699299754975073E+001	-3.0640721E-002	-3.0679347E-002	-4.565847565591354E-006	1.4007723E-010
2	1	0	0	9.749359753710451E+001	-2.5634687E-002	-2.5670646E-002	4.771589542016671E-006	1.2248978E-010
2	1	0	1	9.799419752445829E+001	-2.0628672E-002	-2.0659462E-002	1.386973899631001E-005	2.8654135E-010
2	1	0	0	9.849489751180954E+001	-1.5621724E-002	-1.5634457E-002	2.379049682390772E-005	3.7195150E-010
2	1	0	0	9.899559749916079E+001	-1.0614679E-002	-1.0665564E-002	3.374533724696534E-005	3.5991304E-010
2	1	0	1	9.949619748651457E+001	-5.6086816E-003	-5.6495313E-003	4.358063759339181E-005	2.4621016E-010
2	1	0	0	9.999679747386836E+001	-6.0268439E-004	-6.5478613E-004	5.332303382851679E-005	3.4915182E-011
2	1	0	1	1.004973974612221E+002	4.4033169E-003	4.3579959E-003	6.306518061203071E-005	2.7483779E-010
2	1	0	0	1.009979974485759E+002	9.4093317E-003	9.3607949E-003	7.325111014811229E-005	6.8568862E-010
2	1	0	1	1.014985974359297E+002	1.4415309E-002	1.4378872E-002	8.367877899769427E-005	1.2032064E-009
2	1	0	0	1.019991974232835E+002	1.9421341E-002	1.9390743E-002	9.448434169858394E-005	1.8321216E-009
2	1	0	1	1.024997974106373E+002	2.4427319E-002	2.4383482E-002	1.051374560778413E-004	2.5636173E-009
2	1	0	1	1.030005973979860E+002	2.9435238E-002	2.9402545E-002	1.161583510262158E-004	3.4153511E-009
2	1	0	0	1.035011973853398E+002	3.4441225E-002	3.4403216E-002	1.259906167781284E-004	4.3344826E-009
2	1	0	1	1.040017973726935E+002	3.9447241E-002	3.9397638E-002	1.369057707297253E-004	5.3937641E-009
2	1	0	0	1.045023973600473E+002	4.4453233E-002	4.4408571E-002	1.492199581443012E-004	6.6266450E-009
2	1	0	1	1.050029973474011E+002	4.9459264E-002	4.9414460E-002	1.608196367436088E-004	7.9468156E-009
2	1	0	0	1.055035973347549E+002	5.4465234E-002	5.4431744E-002	1.714657167098564E-004	9.3331778E-009
2	1	0	1	1.060041973221087E+002	5.9471216E-002	5.9434082E-002	1.842609998308604E-004	1.0951384E-008
2	1	0	0	1.065047973094624E+002	6.4477213E-002	6.4448871E-002	1.976177710039195E-004	1.2736242E-008
2	1	0	1	1.070054972968137E+002	6.9484212E-002	6.9434941E-002	2.105120729744229E-004	1.4616893E-008
2	1	0	1	1.075061972841650E+002	7.4491143E-002	7.4449517E-002	2.220849610595340E-004	1.6534118E-008
2	1	0	0	1.080067972715187E+002	7.9497166E-002	7.9463810E-002	2.363999430741275E-004	1.8785240E-008
2	1	0	1	1.085073972588725E+002	8.4503159E-002	8.4483981E-002	2.511382808671201E-004	2.1217161E-008
2	1	0	0	1.090079972462263E+002	8.9509174E-002	8.9472204E-002	2.648200117232316E-004	2.3694030E-008
2	1	0	1	1.095085972335801E+002	9.4515137E-002	9.4502598E-002	2.791587544313354E-004	2.6381228E-008
2	1	0	0	1.099065972235258E+002	9.8495215E-002	9.8458737E-002	2.870684939637325E-004	2.8264401E-008
2	1	0	0	1.100545972197870E+002	9.9997252E-002	1.0010879E-001	2.919064884606207E-004	2.9222404E-008