EC-Lab ASCII FILE
Nb header lines : 55                          

I-V Characterization

Run on channel : 1 (SN 6514)
User : 
CE vs. WE compliance from -10 V to 10 V
Electrode connection : standard
Ewe ctrl range : min = -1.10 V, max = 0.20 V
Safety Limits :
	Do not start on E overload
Acquisition started on : 06/15/2016 18:22:36
Saved on :
	File : B125-G54-UN-G-D1GB-C8 FW 100mVs_04_IVC_C01.mpr
	Directory : E:\EC-Lab measurements\B125-G54-UN-G-D1GB\
	Host : 10.0.2.15
Device : VSP (SN 0295)
Address : USB
EC-Lab for windows v11.01 (software)
Internet server v11.00 (firmware)
Command interpretor v11.00 (firmware)
Electrode material : 
Initial state : 
Electrolyte : 
Comments : 
Electrode surface area : 0.001 cm²
Characteristic mass : 0.001 g
Equivalent Weight : 0.000 g/eq.
Density : 0.000 g/cm3
tR (h:m:s)          0:00:0.0000         
dER/dt (mV/h)       0.0                 
dER (mV)            0                   
dtR (s)             0.0000              
dE/dt               100.000             
dE/dt unit          mV/s                
Ei (V)              0.100               
vs.                 Ref                 
EL (V)              -1.000              
vs.                 Ref                 
record              <I>                 
dI                  0.000               
unit dI             µA                  
tI (s)              0.1000              
step percent        100                 
N                   100                 
E range min (V)     -1.100              
E range max (V)     0.200               
I Range             Auto                
I Range min         Unset               
I Range max         Unset               
I Range init        Unset               
Bandwidth           5                   

mode	ox/red	error	control changes	time/s	control/V	Ewe/V	<I>/mA	P/W
2	0	0	0	3.308339916424302E+001	9.6993521E-002	9.6919402E-002	1.126614809036255E+000	1.0919083E-004
2	0	0	1	3.310869916360389E+001	9.4465211E-002	9.4373055E-002	1.117797127477136E+000	1.0548993E-004
2	0	0	1	3.315879916233826E+001	8.9458957E-002	8.9374326E-002	1.116074092251828E+000	9.9748373E-005
2	0	0	1	3.320879916107515E+001	8.4456772E-002	8.4369734E-002	1.114763528008458E+000	9.4052302E-005
2	0	0	0	3.325889915980952E+001	7.9446577E-002	7.9367086E-002	1.115144338500585E+000	8.8505760E-005
2	0	0	0	3.330899915854388E+001	7.4438289E-002	7.4354276E-002	1.114612376589044E+000	8.2876199E-005
2	0	0	0	3.335899915728078E+001	6.9435887E-002	6.9357760E-002	1.115525759721226E+000	7.7370365E-005
2	0	0	1	3.340909915601515E+001	6.4427882E-002	6.4349689E-002	1.114614506163209E+000	7.1725095E-005
2	0	0	1	3.345919915474951E+001	5.9417386E-002	5.9332632E-002	1.114551401286224E+000	6.6129265E-005
2	0	0	1	3.350919915348641E+001	5.4415412E-002	5.4324158E-002	1.115897877540858E+000	6.0620212E-005
2	0	0	1	3.355919915222330E+001	4.9418896E-002	4.9336992E-002	1.116119756917568E+000	5.5065993E-005
2	0	0	0	3.360939915095514E+001	4.4396721E-002	4.4304114E-002	1.113896141859589E+000	4.9350183E-005
2	0	0	0	3.365939914969204E+001	3.9396774E-002	3.9315607E-002	1.112479569923386E+000	4.3737811E-005
2	0	0	0	3.370939914842893E+001	3.4398209E-002	3.4307621E-002	1.111894741255727E+000	3.8146463E-005
2	0	0	1	3.375959914716077E+001	2.9375846E-002	2.9284026E-002	1.110278935819169E+000	3.2513439E-005
2	0	0	1	3.380959914589766E+001	2.4378115E-002	2.4294188E-002	1.110782728446922E+000	2.6985565E-005
2	0	0	1	3.385959914463456E+001	1.9377336E-002	1.9290458E-002	1.109002326672446E+000	2.1393163E-005
2	0	0	0	3.390969914336893E+001	1.4365667E-002	1.4258984E-002	1.106809724105337E+000	1.5781983E-005
2	0	0	0	3.395979914210329E+001	9.3588457E-003	9.2593534E-003	1.106598355810513E+000	1.0246386E-005
2	0	0	0	3.400979914084019E+001	4.3566641E-003	4.2533060E-003	1.105232627661813E+000	4.7008925E-006
2	0	0	1	3.405989913957455E+001	-6.5298774E-004	-7.5028121E-004	1.103367894996975E+000	8.2783617E-007
2	0	0	1	3.410999913830892E+001	-5.6618508E-003	-5.7780915E-003	1.102232461659111E+000	6.3687999E-006
2	0	0	1	3.415999913704582E+001	-1.0664255E-002	-1.0786007E-002	1.100447760386689E+000	1.1869437E-005
2	0	0	0	3.421009913578018E+001	-1.5671708E-002	-1.5732899E-002	1.097478889472191E+000	1.7266524E-005
2	0	0	0	3.426019913451455E+001	-2.0682789E-002	-2.0754274E-002	1.095497601847081E+000	2.2736258E-005
2	0	0	0	3.431019913325144E+001	-2.5684182E-002	-2.5754837E-002	1.090026718593457E+000	2.8073460E-005
2	0	0	0	3.436019913198834E+001	-3.0681131E-002	-3.0757513E-002	1.086783536187555E+000	3.3426757E-005
2	0	0	1	3.441039913072018E+001	-3.5703529E-002	-3.5795379E-002	1.083570871899934E+000	3.8786831E-005
2	0	0	1	3.446039912945707E+001	-4.0702909E-002	-4.0784881E-002	1.080186967397510E+000	4.4055298E-005
2	0	0	1	3.451039912819397E+001	-4.5702074E-002	-4.5796849E-002	1.075851793456362E+000	4.9270620E-005
2	0	0	0	3.456059912692581E+001	-5.0724473E-002	-5.0803021E-002	1.071195131518925E+000	5.4419947E-005
2	0	0	0	3.461059912566270E+001	-5.5721626E-002	-5.5805713E-002	1.064492670876440E+000	5.9404774E-005
2	0	0	0	3.466059912439960E+001	-6.0722809E-002	-6.0807373E-002	1.059096489928155E+000	6.4400876E-005
2	0	0	1	3.471069912313396E+001	-6.5734148E-002	-6.5820970E-002	1.052297218780362E+000	6.9263224E-005
2	0	0	1	3.476079912186833E+001	-7.0741348E-002	-7.0822828E-002	1.046203409886804E+000	7.4095085E-005
2	0	0	1	3.481079912060522E+001	-7.5743765E-002	-7.5825453E-002	1.038622991914213E+000	7.8754056E-005
2	0	0	0	3.486089911933959E+001	-8.0752879E-002	-8.0834784E-002	1.031540034555667E+000	8.3384315E-005
2	0	0	0	3.491099911807396E+001	-8.5762300E-002	-8.5845470E-002	1.024059616078404E+000	8.7910877E-005
2	0	0	0	3.496099911681085E+001	-9.0764530E-002	-9.0841033E-002	1.015711677724505E+000	9.2268296E-005
2	0	0	1	3.501109911554522E+001	-9.5771573E-002	-9.5843889E-002	1.007884833916183E+000	9.6599601E-005
2	0	0	1	3.506119911427959E+001	-1.0078302E-001	-1.0085464E-001	1.000853437803304E+000	1.0094071E-004
2	0	0	1	3.511119911301648E+001	-1.0578407E-001	-1.0585189E-001	9.937583445612201E-001	1.0519120E-004
2	0	0	1	3.516119911175338E+001	-1.1078159E-001	-1.1085613E-001	9.862392199030641E-001	1.0933066E-004
2	0	0	0	3.521139911048522E+001	-1.1580399E-001	-1.1588193E-001	9.777685398215986E-001	1.1330571E-004
2	0	0	0	3.526139910922211E+001	-1.2080275E-001	-1.2087162E-001	9.686889314979652E-001	1.1708700E-004
2	0	0	0	3.531139910795901E+001	-1.2580249E-001	-1.2587282E-001	9.604502069195640E-001	1.2089458E-004
2	0	0	1	3.536159910669085E+001	-1.3082470E-001	-1.3089977E-001	9.516137965206459E-001	1.2456602E-004
2	0	0	1	3.541159910542774E+001	-1.3582137E-001	-1.3590254E-001	9.425749327391149E-001	1.2809833E-004
2	0	0	1	3.546159910416463E+001	-1.4082311E-001	-1.4090014E-001	9.324962358573901E-001	1.3138885E-004
2	0	0	0	3.551169910289900E+001	-1.4583409E-001	-1.4592309E-001	9.234779755809335E-001	1.3475676E-004
2	0	0	0	3.556179910163337E+001	-1.5084182E-001	-1.5092257E-001	9.150988087174081E-001	1.3810906E-004
2	0	0	0	3.561179910037026E+001	-1.5584412E-001	-1.5593317E-001	9.072442580864672E-001	1.4146947E-004
2	0	0	1	3.566189909910463E+001	-1.6085272E-001	-1.6094714E-001	8.994803814957280E-001	1.4476880E-004
2	0	0	1	3.571199909783900E+001	-1.6586249E-001	-1.6596645E-001	8.910700429221041E-001	1.4788774E-004
2	0	0	1	3.576199909657589E+001	-1.7086494E-001	-1.7096904E-001	8.831365365107615E-001	1.5098900E-004
2	0	0	0	3.581209909531026E+001	-1.7587154E-001	-1.7598642E-001	8.741627936198162E-001	1.5384078E-004
2	0	0	0	3.586219909404463E+001	-1.8088357E-001	-1.8100475E-001	8.661210663680707E-001	1.5677203E-004
2	0	0	0	3.591219909278152E+001	-1.8588382E-001	-1.8599634E-001	8.562822041802232E-001	1.5926536E-004
2	0	0	0	3.596219909151841E+001	-1.9088210E-001	-1.9098625E-001	8.485134121722879E-001	1.6205439E-004
2	0	0	1	3.601239909025026E+001	-1.9590421E-001	-1.9602051E-001	8.401630277853833E-001	1.6468919E-004
2	0	0	1	3.606239908898715E+001	-2.0090252E-001	-2.0102376E-001	8.312679608111662E-001	1.6710460E-004
2	0	0	1	3.611239908772404E+001	-2.0590274E-001	-2.0601897E-001	8.234796519115999E-001	1.6965243E-004
2	0	0	0	3.616249908645841E+001	-2.1091507E-001	-2.1102867E-001	8.163575461328012E-001	1.7227484E-004
2	0	0	0	3.621259908519278E+001	-2.1592137E-001	-2.1604382E-001	8.084414965624696E-001	1.7465878E-004
2	0	0	0	3.626259908392967E+001	-2.2092368E-001	-2.2103089E-001	7.998443653047449E-001	1.7679032E-004
2	0	0	1	3.631269908266404E+001	-2.2593388E-001	-2.2605661E-001	7.919620177249902E-001	1.7902824E-004
2	0	0	1	3.636279908139841E+001	-2.3094207E-001	-2.3107074E-001	7.838946069132087E-001	1.8113511E-004
2	0	0	1	3.641279908013530E+001	-2.3594435E-001	-2.3604363E-001	7.758991283315346E-001	1.8314605E-004
2	0	0	0	3.646289907886967E+001	-2.4095261E-001	-2.4108939E-001	7.672268958506638E-001	1.8497027E-004
2	0	0	0	3.651299907760404E+001	-2.4596310E-001	-2.4607100E-001	7.596319194239189E-001	1.8692338E-004
2	0	0	0	3.656299907634093E+001	-2.5096488E-001	-2.5104994E-001	7.521210183791416E-001	1.8881993E-004
2	0	0	0	3.661299907507782E+001	-2.5596169E-001	-2.5605768E-001	7.439500079299467E-001	1.9049412E-004
2	0	0	1	3.666319907380966E+001	-2.6098365E-001	-2.6108187E-001	7.355514393411706E-001	1.9203915E-004
2	0	0	1	3.671319907254656E+001	-2.6598361E-001	-2.6608130E-001	7.267848590112997E-001	1.9338386E-004
2	0	0	1	3.676319907128345E+001	-2.7098238E-001	-2.7107936E-001	7.194650341607769E-001	1.9503212E-004
2	0	0	0	3.681339907001529E+001	-2.7600461E-001	-2.7608517E-001	7.109375885507827E-001	1.9627932E-004
2	0	0	0	3.686339906875219E+001	-2.8100240E-001	-2.8110227E-001	7.032323328569277E-001	1.9768020E-004
2	0	0	0	3.691339906748908E+001	-2.8600332E-001	-2.8609347E-001	6.955096831170442E-001	1.9898078E-004
2	0	0	1	3.696349906622345E+001	-2.9101506E-001	-2.9111302E-001	6.870703852751987E-001	2.0001513E-004
2	0	0	1	3.701359906495782E+001	-2.9602158E-001	-2.9612225E-001	6.786930252559049E-001	2.0097611E-004
2	0	0	1	3.706359906369471E+001	-3.0102414E-001	-3.0111942E-001	6.706319697713425E-001	2.0194030E-004
2	0	0	0	3.711369906242908E+001	-3.0603352E-001	-3.0612630E-001	6.622761858359567E-001	2.0274015E-004
2	0	0	0	3.716379906116345E+001	-3.1104249E-001	-3.1114274E-001	6.542742925433913E-001	2.0357269E-004
2	0	0	0	3.721379905990034E+001	-3.1604481E-001	-3.1613976E-001	6.464403051180767E-001	2.0436548E-004
2	0	0	1	3.726389905863471E+001	-3.2105246E-001	-3.2116151E-001	6.389148235798733E-001	2.0519485E-004
2	0	0	1	3.731399905736907E+001	-3.2606325E-001	-3.2614240E-001	6.305200876061114E-001	2.0563933E-004
2	0	0	1	3.736399905610597E+001	-3.3106473E-001	-3.3115017E-001	6.215390148917024E-001	2.0582275E-004
2	0	0	1	3.741399905484286E+001	-3.3606198E-001	-3.3615091E-001	6.129717194842743E-001	2.0605100E-004
2	0	0	0	3.746419905357470E+001	-3.4108412E-001	-3.4116432E-001	6.042575278740032E-001	2.0615110E-004
2	0	0	0	3.751419905231160E+001	-3.4608343E-001	-3.4617218E-001	5.956305869207605E-001	2.0619074E-004
2	0	0	0	3.756419905104849E+001	-3.5108289E-001	-3.5118032E-001	5.874248237531692E-001	2.0629204E-004
2	0	0	1	3.761439904978033E+001	-3.5610527E-001	-3.5620627E-001	5.787693096807764E-001	2.0616126E-004
2	0	0	1	3.766439904851723E+001	-3.6110213E-001	-3.6120275E-001	5.699989628519422E-001	2.0588520E-004
2	0	0	1	3.771439904725412E+001	-3.6610353E-001	-3.6618909E-001	5.608981886909348E-001	2.0539480E-004
2	0	0	0	3.776449904598849E+001	-3.7111455E-001	-3.7121662E-001	5.515174738115229E-001	2.0473245E-004
2	0	0	0	3.781459904472285E+001	-3.7612197E-001	-3.7622470E-001	5.429843125180498E-001	2.0428411E-004
2	0	0	0	3.786459904345975E+001	-3.8112456E-001	-3.8122663E-001	5.343129173053054E-001	2.0369432E-004
2	0	0	1	3.791469904219412E+001	-3.8613373E-001	-3.8622677E-001	5.251498180653744E-001	2.0282692E-004
2	0	0	1	3.796479904092848E+001	-3.9114282E-001	-3.9122900E-001	5.157237160262191E-001	2.0176607E-004
2	0	0	1	3.801479903966538E+001	-3.9614555E-001	-3.9625612E-001	5.064210722747777E-001	2.0067245E-004
2	0	0	0	3.806489903839974E+001	-4.0115207E-001	-4.0126044E-001	4.974278976269506E-001	1.9959813E-004
2	0	0	0	3.811499903713411E+001	-4.0616366E-001	-4.0624428E-001	4.876999689614472E-001	1.9812532E-004
2	0	0	0	3.816499903587101E+001	-4.1116464E-001	-4.1124126E-001	4.775532770891717E-001	1.9638961E-004
2	0	0	0	3.822999903422897E+001	-4.1766357E-001	-4.1771796E-001	4.654401552747903E-001	1.9442271E-004
2	0	0	1	3.829519903258188E+001	-4.2418221E-001	-4.2422673E-001	4.526624510811814E-001	1.9203151E-004
2	0	0	1	3.834519903131877E+001	-4.2918491E-001	-4.2921841E-001	4.424559623647752E-001	1.8991025E-004
2	0	0	0	3.839529903005314E+001	-4.3419319E-001	-4.3422925E-001	4.319455017376332E-001	1.8756338E-004
2	0	0	0	3.844539902878751E+001	-4.3920305E-001	-4.3923849E-001	4.211066228510418E-001	1.8496624E-004
2	0	0	0	3.849539902752440E+001	-4.4420555E-001	-4.4423813E-001	4.103110583554859E-001	1.8227582E-004
2	0	0	1	3.854549902625877E+001	-4.4921240E-001	-4.4926322E-001	4.000815033943184E-001	1.7974190E-004
2	0	0	1	3.859559902499313E+001	-4.5422393E-001	-4.5427850E-001	3.894245400054812E-001	1.7690720E-004
2	0	0	1	3.864559902373003E+001	-4.5922473E-001	-4.5927376E-001	3.786693957558569E-001	1.7391292E-004
2	0	0	1	3.869559902246692E+001	-4.6422243E-001	-4.6428299E-001	3.669514929187618E-001	1.7036934E-004
2	0	0	0	3.874579902119876E+001	-4.6924457E-001	-4.6929446E-001	3.551889643727509E-001	1.6668822E-004
2	0	0	0	3.879579901993566E+001	-4.7424322E-001	-4.7428417E-001	3.436348545413583E-001	1.6298058E-004
2	0	0	0	3.884579901867255E+001	-4.7924355E-001	-4.7929329E-001	3.319210810043929E-001	1.5908755E-004
2	0	0	1	3.889599901740439E+001	-4.8426580E-001	-4.8432389E-001	3.204262623534038E-001	1.5519009E-004
2	0	0	1	3.894599901614129E+001	-4.8926198E-001	-4.8932409E-001	3.084157760841397E-001	1.5091526E-004
2	0	0	1	3.899599901487818E+001	-4.9426419E-001	-4.9433234E-001	2.966572689281368E-001	1.4664729E-004
2	0	0	0	3.904609901361255E+001	-4.9927428E-001	-4.9934247E-001	2.845194550435703E-001	1.4207265E-004
2	0	0	0	3.909619901234692E+001	-5.0428265E-001	-5.0435954E-001	2.719546930984356E-001	1.3716295E-004
2	0	0	0	3.914619901108381E+001	-5.0928503E-001	-5.0935978E-001	2.590642647961889E-001	1.3195691E-004
2	0	0	1	3.919629900981818E+001	-5.1429349E-001	-5.1436222E-001	2.462481346363026E-001	1.2666074E-004
2	0	0	1	3.924639900855254E+001	-5.1930326E-001	-5.1937139E-001	2.334350702667072E-001	1.2123950E-004
2	0	0	1	3.929639900728944E+001	-5.2430588E-001	-5.2437115E-001	2.204139588555027E-001	1.1557872E-004
2	0	0	1	3.934639900602633E+001	-5.2930176E-001	-5.2936876E-001	2.071265167672820E-001	1.0964631E-004
2	0	0	0	3.939659900475817E+001	-5.3432435E-001	-5.3439683E-001	1.934718675096239E-001	1.0339075E-004
2	0	0	0	3.944659900349507E+001	-5.3932446E-001	-5.3938484E-001	1.796528924728698E-001	9.6902048E-005
2	0	0	0	3.949659900223196E+001	-5.4432327E-001	-5.4439735E-001	1.658959042560886E-001	9.0313290E-005
2	0	0	1	3.954679900096380E+001	-5.4934508E-001	-5.4941207E-001	1.515434985350684E-001	8.3259831E-005
2	0	0	1	3.959679899970070E+001	-5.5434328E-001	-5.5443668E-001	1.369063693094189E-001	7.5905911E-005
2	0	0	1	3.964679899843759E+001	-5.5934352E-001	-5.5942124E-001	1.223462153155271E-001	6.8443071E-005
2	0	0	0	3.969689899717196E+001	-5.6435537E-001	-5.6442112E-001	1.075419522129075E-001	6.0698949E-005
2	0	0	0	3.974699899590632E+001	-5.6936216E-001	-5.6943524E-001	9.249888038676368E-002	5.2672123E-005
2	0	0	0	3.979699899464322E+001	-5.7436454E-001	-5.7443821E-001	7.739962697021008E-002	4.4461303E-005
2	0	0	1	3.984709899337759E+001	-5.7937443E-001	-5.7943892E-001	6.225164275379741E-002	3.6071026E-005
2	0	0	1	3.989719899211195E+001	-5.8438295E-001	-5.8445001E-001	4.685642361883335E-002	2.7385237E-005
2	0	0	1	3.996219899046991E+001	-5.9088433E-001	-5.9097618E-001	2.665608307445894E-002	1.5753110E-005
2	0	0	0	4.002739898882282E+001	-5.9740525E-001	-5.9747565E-001	5.969980064337715E-003	3.5669177E-006
2	0	0	0	4.007739898755972E+001	-6.0240299E-001	-6.0247743E-001	-1.005229676092909E-002	6.0562820E-006
2	0	0	0	4.012739898629661E+001	-6.0740411E-001	-6.0747719E-001	-2.616389458797235E-002	1.5893969E-005
2	0	0	1	4.017749898503098E+001	-6.1241549E-001	-6.1249745E-001	-4.256974489507129E-002	2.6073860E-005
2	0	0	1	4.022759898376535E+001	-6.1742264E-001	-6.1749637E-001	-5.921115173177505E-002	3.6562673E-005
2	0	0	1	4.027759898250224E+001	-6.2242472E-001	-6.2250626E-001	-7.565278763182426E-002	4.7094334E-005
2	0	0	0	4.032769898123661E+001	-6.2743390E-001	-6.2751085E-001	-9.211456829952946E-002	5.7802892E-005
2	0	0	0	4.039299897958699E+001	-6.3396555E-001	-6.3404936E-001	-1.140745468073363E-001	7.2328890E-005
2	0	0	1	4.045839897793485E+001	-6.4050341E-001	-6.4056480E-001	-1.357918959547119E-001	8.6983506E-005
2	0	0	1	4.050839897667174E+001	-6.4550537E-001	-6.4556777E-001	-1.529684945300109E-001	9.8751530E-005
2	0	0	0	4.055849897540611E+001	-6.5051311E-001	-6.5056944E-001	-1.699781027224549E-001	1.1058256E-004
2	0	0	0	4.060859897414048E+001	-6.5552413E-001	-6.5556860E-001	-1.869647800607055E-001	1.2256824E-004
2	0	0	0	4.065859897287737E+001	-6.6052520E-001	-6.6058010E-001	-2.041753149955623E-001	1.3487415E-004
2	0	0	0	4.070859897161426E+001	-6.6552269E-001	-6.6556412E-001	-2.212253563230893E-001	1.4723965E-004
2	0	0	1	4.075879897034611E+001	-6.7054492E-001	-6.7059004E-001	-2.384854882482315E-001	1.5992600E-004
2	0	0	1	4.080879896908300E+001	-6.7554414E-001	-6.7560118E-001	-2.556062583179091E-001	1.7268788E-004
2	0	0	1	4.085879896781989E+001	-6.8054366E-001	-6.8059665E-001	-2.728237462274881E-001	1.8568293E-004
2	0	0	0	4.090899896655174E+001	-6.8556601E-001	-6.8559843E-001	-2.899740700996736E-001	1.9880576E-004
2	0	0	0	4.095899896528863E+001	-6.9056267E-001	-6.9059938E-001	-3.069367463675712E-001	2.1197033E-004
2	0	0	0	4.100899896402552E+001	-6.9556433E-001	-6.9560820E-001	-3.238886103895489E-001	2.2529958E-004
2	0	0	1	4.105909896275989E+001	-7.0057529E-001	-7.0061958E-001	-3.409778393090779E-001	2.3889575E-004
2	0	0	1	4.110919896149426E+001	-7.0558304E-001	-7.0563120E-001	-3.579852191431758E-001	2.5260553E-004
2	0	0	1	4.115919896023115E+001	-7.1058524E-001	-7.1064836E-001	-3.745161440050975E-001	2.6614929E-004
2	0	0	0	4.120929895896552E+001	-7.1559441E-001	-7.1563911E-001	-3.915385896580019E-001	2.8020033E-004
2	0	0	0	4.125939895769989E+001	-7.2060347E-001	-7.2063756E-001	-4.084043247352596E-001	2.9431150E-004
2	0	0	0	4.130939895643678E+001	-7.2560596E-001	-7.2563905E-001	-4.253277832195264E-001	3.0863445E-004
2	0	0	1	4.135949895517115E+001	-7.3061281E-001	-7.3064637E-001	-4.415078424625793E-001	3.2258610E-004
2	0	0	1	4.140959895390552E+001	-7.3562449E-001	-7.3565078E-001	-4.576125529928516E-001	3.3664302E-004
2	0	0	1	4.145959895264241E+001	-7.4062526E-001	-7.4064469E-001	-4.736408435344286E-001	3.5079959E-004
2	0	0	1	4.150959895137930E+001	-7.4562335E-001	-7.4566466E-001	-4.901270610178541E-001	3.6547042E-004
2	0	0	0	4.155979895011114E+001	-7.5064558E-001	-7.5068730E-001	-5.057989519736523E-001	3.7969684E-004
2	0	0	0	4.160979894884804E+001	-7.5564390E-001	-7.5569040E-001	-5.210147440414357E-001	3.9372584E-004
2	0	0	0	4.165979894758493E+001	-7.6064396E-001	-7.6068902E-001	-5.367101439267259E-001	4.0826952E-004
2	0	0	1	4.170999894631677E+001	-7.6566595E-001	-7.6571673E-001	-5.517666318352952E-001	4.2249693E-004
2	0	0	1	4.175999894505367E+001	-7.7066278E-001	-7.7071702E-001	-5.664171453673816E-001	4.3654733E-004
2	0	0	1	4.180999894379056E+001	-7.7566493E-001	-7.7572727E-001	-5.809865157240068E-001	4.5068708E-004
2	0	0	0	4.186009894252493E+001	-7.8067559E-001	-7.8072804E-001	-5.952820886858330E-001	4.6475342E-004
2	0	0	0	4.191019894125930E+001	-7.8568292E-001	-7.8574353E-001	-6.094802023907888E-001	4.7889512E-004
2	0	0	0	4.196019893999619E+001	-7.9068565E-001	-7.9073936E-001	-6.235600774547425E-001	4.9307349E-004
2	0	0	1	4.201029893873056E+001	-7.9569393E-001	-7.9575682E-001	-6.374383996116233E-001	5.0724595E-004
2	0	0	1	4.206039893746492E+001	-8.0070394E-001	-8.0075729E-001	-6.516111330423282E-001	5.2178238E-004
2	0	0	1	4.211039893620182E+001	-8.0570644E-001	-8.0576265E-001	-6.643464434628914E-001	5.3530553E-004
2	0	0	0	4.216049893493619E+001	-8.1071305E-001	-8.1078732E-001	-6.779318152777307E-001	5.4965849E-004
2	0	0	0	4.221059893367055E+001	-8.1572509E-001	-8.1580126E-001	-6.908729999868708E-001	5.6361506E-004
2	0	0	0	4.226059893240745E+001	-8.2072514E-001	-8.2080400E-001	-7.032555301128420E-001	5.7723495E-004
2	0	0	0	4.231059893114434E+001	-8.2572329E-001	-8.2580584E-001	-7.157541564634364E-001	5.9107394E-004
2	0	0	1	4.236079892987618E+001	-8.3074558E-001	-8.3081955E-001	-7.283166918815223E-001	6.0509972E-004
2	0	0	1	4.241079892861308E+001	-8.3574384E-001	-8.3582288E-001	-7.401072406895275E-001	6.1859854E-004
2	0	0	1	4.246079892734997E+001	-8.4074444E-001	-8.4080756E-001	-7.521630303094824E-001	6.3242437E-004
2	0	0	0	4.251089892608434E+001	-8.4575665E-001	-8.4583491E-001	-7.642384082912672E-001	6.4641953E-004
2	0	0	0	4.256099892481870E+001	-8.5076278E-001	-8.5083437E-001	-7.754894503221874E-001	6.5981306E-004
2	0	0	0	4.261099892355560E+001	-8.5576510E-001	-8.5583562E-001	-7.861876167164112E-001	6.7284738E-004
2	0	0	1	4.266109892228997E+001	-8.6077487E-001	-8.6084855E-001	-7.969638544776299E-001	6.8606518E-004
2	0	0	1	4.271119892102433E+001	-8.6578381E-001	-8.6586761E-001	-8.080729497734183E-001	6.9968420E-004
2	0	0	1	4.276119891976123E+001	-8.7078607E-001	-8.7086642E-001	-8.181081152278686E-001	7.1246288E-004
2	0	0	0	4.281129891849560E+001	-8.7579417E-001	-8.7585348E-001	-8.277713833429985E-001	7.2500645E-004
2	0	0	0	4.286139891722996E+001	-8.8080442E-001	-8.8084918E-001	-8.375601431712063E-001	7.3776417E-004
2	0	0	0	4.291139891596686E+001	-8.8580656E-001	-8.8585520E-001	-8.476105542594787E-001	7.5086020E-004
2	0	0	0	4.296139891470375E+001	-8.9080280E-001	-8.9084405E-001	-8.580461519285727E-001	7.6438533E-004
2	0	0	1	4.301159891343559E+001	-8.9582503E-001	-8.9587742E-001	-8.665424593538245E-001	7.7631581E-004
2	0	0	1	4.306159891217249E+001	-9.0082514E-001	-9.0086651E-001	-8.757553338279607E-001	7.8893866E-004
2	0	0	1	4.311159891090938E+001	-9.0582418E-001	-9.0587419E-001	-8.832537445817810E-001	8.0011674E-004
2	0	0	0	4.316179890964122E+001	-9.1084629E-001	-9.1089493E-001	-8.923791368133127E-001	8.1286364E-004
2	0	0	0	4.321179890837811E+001	-9.1584384E-001	-9.1589147E-001	-9.000290651112122E-001	8.2432892E-004
2	0	0	0	4.326179890711501E+001	-9.2084467E-001	-9.2088419E-001	-9.083404600953795E-001	8.3647639E-004
2	0	0	1	4.331189890584938E+001	-9.2585599E-001	-9.2591602E-001	-9.161398639464196E-001	8.4826857E-004
2	0	0	1	4.336199890458374E+001	-9.3086308E-001	-9.3092358E-001	-9.239372845757146E-001	8.6011499E-004
2	0	0	1	4.341199890332064E+001	-9.3586564E-001	-9.3593824E-001	-9.312628177016542E-001	8.7160448E-004
2	0	0	0	4.346209890205500E+001	-9.4087517E-001	-9.4092453E-001	-9.383292265623298E-001	8.8289700E-004
2	0	0	0	4.351219890078937E+001	-9.4588405E-001	-9.4593751E-001	-9.446581007830619E-001	8.9358754E-004
2	0	0	0	4.356219889952627E+001	-9.5088643E-001	-9.5094568E-001	-9.513369137630718E-001	9.0466975E-004
2	0	0	1	4.361229889826063E+001	-9.5589346E-001	-9.5592564E-001	-9.588510006626407E-001	9.1659027E-004
2	0	0	1	4.366239889699500E+001	-9.6090466E-001	-9.6095908E-001	-9.665820429981409E-001	9.2884578E-004
2	0	0	1	4.371239889573189E+001	-9.6590620E-001	-9.6595657E-001	-9.733422295574048E-001	9.4020634E-004
2	0	0	1	4.376239889446879E+001	-9.7090364E-001	-9.7095603E-001	-9.808181301303698E-001	9.5233129E-004
2	0	0	0	4.381259889320063E+001	-9.7592562E-001	-9.7597563E-001	-9.858149232869025E-001	9.6213137E-004
2	0	0	0	4.386259889193752E+001	-9.8092502E-001	-9.8097599E-001	-9.910101043510817E-001	9.7215711E-004
2	0	0	0	4.391259889067442E+001	-9.8592401E-001	-9.8598349E-001	-9.968693150862462E-001	9.8289666E-004
2	0	0	1	4.396279888940626E+001	-9.9094623E-001	-9.9099529E-001	-1.003620640755866E+000	9.9458336E-004
2	0	0	1	4.401279888814315E+001	-9.9594361E-001	-9.9597842E-001	-1.009521711883695E+000	1.0054618E-003
2	0	0	1	4.404549888731708E+001	-9.9921608E-001	-9.9926442E-001	-1.013263206486066E+000	1.0125178E-003
2	0	0	0	4.405339888711751E+001	-1.0000215E+000	-9.9996156E-001	-1.014958918094635E+000	1.0149200E-003