EC-Lab ASCII FILE
Nb header lines : 55                          

I-V Characterization

Run on channel : 1 (SN 6514)
User : 
CE vs. WE compliance from -10 V to 10 V
Electrode connection : standard
Ewe ctrl range : min = -1.10 V, max = 0.20 V
Safety Limits :
	Do not start on E overload
Acquisition started on : 06/15/2016 18:47:36
Saved on :
	File : B125-G54-UN-G-D1GB-C9 FW 100mVs dark_C01.mpr
	Directory : E:\EC-Lab measurements\B125-G54-UN-G-D1GB\
	Host : 10.0.2.15
Device : VSP (SN 0295)
Address : USB
EC-Lab for windows v11.01 (software)
Internet server v11.00 (firmware)
Command interpretor v11.00 (firmware)
Electrode material : 
Initial state : 
Electrolyte : 
Comments : 
Electrode surface area : 0.001 cm²
Characteristic mass : 0.001 g
Equivalent Weight : 0.000 g/eq.
Density : 0.000 g/cm3
tR (h:m:s)          0:00:0.0000         
dER/dt (mV/h)       0.0                 
dER (mV)            0                   
dtR (s)             0.0000              
dE/dt               100.000             
dE/dt unit          mV/s                
Ei (V)              0.100               
vs.                 Ref                 
EL (V)              -1.000              
vs.                 Ref                 
record              <I>                 
dI                  0.000               
unit dI             µA                  
tI (s)              0.1000              
step percent        100                 
N                   100                 
E range min (V)     -1.100              
E range max (V)     0.200               
I Range             Auto                
I Range min         Unset               
I Range max         Unset               
I Range init        Unset               
Bandwidth           5                   

mode	ox/red	error	control changes	time/s	control/V	Ewe/V	<I>/mA	P/W
2	0	0	1	8.039999796892516E-002	9.6993521E-002	9.7033992E-002	1.488241774495691E-003	1.4441004E-007
2	0	0	0	1.056999973297934E-001	9.4465211E-002	9.4426118E-002	1.299860456791157E-003	1.2274077E-007
2	0	0	0	1.710999956776504E-001	8.7929122E-002	8.7876499E-002	9.917329743519866E-004	8.7150021E-008
2	0	0	1	2.363999940280337E-001	8.1398934E-002	8.1369869E-002	7.717224755667915E-004	6.2794960E-008
2	0	0	1	2.863999927649274E-001	7.6396704E-002	7.6362185E-002	6.348941363453885E-004	4.8481905E-008
2	0	0	0	3.364999914992950E-001	7.1386509E-002	7.1343541E-002	5.183129218839268E-004	3.6978278E-008
2	0	0	0	3.865999902336625E-001	6.6378236E-002	6.6347741E-002	4.177020177771206E-004	2.7713584E-008
2	0	0	0	4.365999889705563E-001	6.1375830E-002	6.1339665E-002	3.314750343535169E-004	2.0332568E-008
2	0	0	1	4.866999877049238E-001	5.6367833E-002	5.6325100E-002	2.579763218182349E-004	1.4530542E-008
2	0	0	1	5.367999864392914E-001	5.1357362E-002	5.1302601E-002	1.933204425269182E-004	9.9178417E-009
2	0	0	1	5.867999851761851E-001	4.6355389E-002	4.6311457E-002	1.377813210473948E-004	6.3808536E-009
2	0	0	1	6.367999839130789E-001	4.1359074E-002	4.1323818E-002	8.931991154663768E-005	3.6910397E-009
2	0	0	0	6.869999826449202E-001	3.6336713E-002	3.6301058E-002	4.641954129934792E-005	1.6850784E-009
2	0	0	0	7.369999813818140E-001	3.1336755E-002	3.1294446E-002	9.980068501325986E-006	3.1232072E-010
2	0	0	0	7.869999801187078E-001	2.6338194E-002	2.6298176E-002	-2.295266034874576E-005	6.0361310E-010
2	0	0	1	8.371999788505491E-001	2.1315835E-002	2.1269919E-002	-5.186171387774831E-005	1.1030945E-009
2	0	0	1	8.871999775874428E-001	1.6318094E-002	1.6266530E-002	-7.708309740439741E-005	1.2538746E-009
2	0	0	1	9.371999763243366E-001	1.1317321E-002	1.1252595E-002	-9.997876053202182E-005	1.1250205E-009
2	0	0	0	9.872999750587041E-001	6.3056569E-003	6.2566237E-003	-1.201600650619016E-004	7.5179629E-010
2	0	0	0	1.037399973793072E+000	1.2990338E-003	1.2504809E-003	-1.381437569781597E-004	1.7274612E-010
2	0	0	0	1.087399972529965E+000	-3.7033611E-003	-3.7573462E-003	-1.549474531674263E-004	5.8219124E-010
2	0	0	1	1.137499971264333E+000	-8.7130331E-003	-8.7630004E-003	-1.699834107004884E-004	1.4895647E-009
2	0	0	1	1.187599969998701E+000	-1.3721895E-002	-1.3767899E-002	-1.843685796694057E-004	2.5383680E-009
2	0	0	1	1.237599968735594E+000	-1.8724302E-002	-1.8750241E-002	-1.969633965988567E-004	3.6931112E-009
2	0	0	0	1.287699967469962E+000	-2.3731761E-002	-2.3771748E-002	-2.084998556351875E-004	4.9564060E-009
2	0	0	0	1.337799966204329E+000	-2.8742639E-002	-2.8770665E-002	-2.195300324202260E-004	6.3160250E-009
2	0	0	0	1.387799964941223E+000	-3.3744227E-002	-3.3776101E-002	-2.295237308658949E-004	7.7524165E-009
2	0	0	0	1.437799963678117E+000	-3.8741175E-002	-3.8770307E-002	-2.392286801104928E-004	9.2749692E-009
2	0	0	1	1.487999962409958E+000	-4.3763574E-002	-4.3800250E-002	-2.485918249483829E-004	1.0888384E-008
2	0	0	1	1.537999961146852E+000	-4.8762985E-002	-4.8800815E-002	-2.567242809635227E-004	1.2528354E-008
2	0	0	1	1.587999959883746E+000	-5.3762134E-002	-5.3796712E-002	-2.648186275456747E-004	1.4246371E-008
2	0	0	0	1.638199958615587E+000	-5.8784347E-002	-5.8822565E-002	-2.724311864481565E-004	1.6025101E-008
2	0	0	0	1.688199957352481E+000	-6.3781686E-002	-6.3833050E-002	-2.806058900956572E-004	1.7911930E-008
2	0	0	0	1.738199956089375E+000	-6.8782844E-002	-6.8825446E-002	-2.880888048658424E-004	1.9827841E-008
2	0	0	1	1.788299954823742E+000	-7.3794171E-002	-7.3824480E-002	-2.951447029835691E-004	2.1788905E-008
2	0	0	1	1.838399953558110E+000	-7.8801356E-002	-7.8822315E-002	-3.016710623663533E-004	2.3778412E-008
2	0	0	1	1.888399952295003E+000	-8.3803780E-002	-8.3852261E-002	-3.089133617207411E-004	2.5903084E-008
2	0	0	0	1.938499951029371E+000	-8.8812873E-002	-8.8855393E-002	-3.149771674806076E-004	2.7987420E-008
2	0	0	0	1.988599949763739E+000	-9.3822084E-002	-9.3857713E-002	-3.214354695908871E-004	3.0169197E-008
2	0	0	0	2.038599948500632E+000	-9.8824568E-002	-9.8845974E-002	-3.278140590533274E-004	3.2403101E-008
2	0	0	1	2.088699947235000E+000	-1.0383155E-001	-1.0388378E-001	-3.341744415513766E-004	3.4715303E-008
2	0	0	1	2.138799945969367E+000	-1.0884300E-001	-1.0888695E-001	-3.398522794755676E-004	3.7005478E-008
2	0	0	1	2.188799944706261E+000	-1.1384419E-001	-1.1387871E-001	-3.447759470854000E-004	3.9262641E-008
2	0	0	1	2.238799943443155E+000	-1.1884167E-001	-1.1885612E-001	-3.520049059589662E-004	4.1837939E-008
2	0	0	0	2.288999942174996E+000	-1.2386402E-001	-1.2389104E-001	-3.579960710585021E-004	4.4352507E-008
2	0	0	0	2.338999940911890E+000	-1.2886286E-001	-1.2890476E-001	-3.642024677604546E-004	4.6947431E-008
2	0	0	0	2.388999939648784E+000	-1.3386235E-001	-1.3387251E-001	-3.714205720846088E-004	4.9723003E-008
2	0	0	1	2.439199938380625E+000	-1.3888477E-001	-1.3892299E-001	-3.776796030633351E-004	5.2468380E-008
2	0	0	1	2.489199937117519E+000	-1.4388163E-001	-1.4393395E-001	-3.832399833792119E-004	5.5161244E-008
2	0	0	1	2.539199935854413E+000	-1.4888336E-001	-1.4892210E-001	-3.905859972048818E-004	5.8166886E-008
2	0	0	0	2.589299934588780E+000	-1.5389392E-001	-1.5394321E-001	-3.985339288638083E-004	6.1351592E-008
2	0	0	0	2.639399933323148E+000	-1.5890183E-001	-1.5895189E-001	-4.036093751085459E-004	6.4154477E-008
2	0	0	0	2.689399932060041E+000	-1.6390401E-001	-1.6397068E-001	-4.094975529962360E-004	6.7145592E-008
2	0	0	1	2.739499930794409E+000	-1.6891268E-001	-1.6895834E-001	-4.166424484481606E-004	7.0395217E-008
2	0	0	1	2.789599929528777E+000	-1.7392249E-001	-1.7397851E-001	-4.241439813136823E-004	7.3791938E-008
2	0	0	1	2.839599928265670E+000	-1.7892505E-001	-1.7898196E-001	-4.303944059653037E-004	7.7032837E-008
2	0	0	0	2.889699927000038E+000	-1.8393146E-001	-1.8401186E-001	-4.387129140931729E-004	8.0728377E-008
2	0	0	0	2.939799925734405E+000	-1.8894343E-001	-1.8901917E-001	-4.449951797896797E-004	8.4112621E-008
2	0	0	0	2.989799924471299E+000	-1.9394398E-001	-1.9402002E-001	-4.531373224300164E-004	8.7917712E-008
2	0	0	0	3.039799923208193E+000	-1.9894172E-001	-1.9901577E-001	-4.609292497112661E-004	9.1732190E-008
2	0	0	1	3.089999921940034E+000	-2.0396422E-001	-2.0404673E-001	-4.685357412037615E-004	9.5603184E-008
2	0	0	1	3.139999920676928E+000	-2.0896278E-001	-2.0903213E-001	-4.777179824538560E-004	9.9858411E-008
2	0	0	1	3.189999919413822E+000	-2.1396297E-001	-2.1403758E-001	-4.869304847938288E-004	1.0422142E-007
2	0	0	0	3.240099918148189E+000	-2.1897505E-001	-2.1905409E-001	-4.944466230594260E-004	1.0831055E-007
2	0	0	0	3.290199916882557E+000	-2.2398150E-001	-2.2406338E-001	-5.022923426056224E-004	1.1254532E-007
2	0	0	0	3.340199915619451E+000	-2.2898370E-001	-2.2906084E-001	-5.116525491171862E-004	1.1719956E-007
2	0	0	1	3.390299914353818E+000	-2.3399378E-001	-2.3406968E-001	-5.221331922130252E-004	1.2221555E-007
2	0	0	1	3.440399913088186E+000	-2.3900221E-001	-2.3908716E-001	-5.293684031923082E-004	1.2656520E-007
2	0	0	1	3.490399911825079E+000	-2.4400450E-001	-2.4408448E-001	-5.400360027732775E-004	1.3181440E-007
2	0	0	0	3.540499910559447E+000	-2.4901254E-001	-2.4907105E-001	-5.491459287918160E-004	1.3677635E-007
2	0	0	0	3.590599909293815E+000	-2.5402313E-001	-2.5406894E-001	-5.588105992037959E-004	1.4197641E-007
2	0	0	0	3.640599908030708E+000	-2.5902519E-001	-2.5907582E-001	-5.693621930072465E-004	1.4750798E-007
2	0	0	0	3.690599906767602E+000	-2.6402122E-001	-2.6406890E-001	-5.808390995175119E-004	1.5338155E-007
2	0	0	1	3.740799905499443E+000	-2.6904374E-001	-2.6909772E-001	-5.923911047717289E-004	1.5941109E-007
2	0	0	1	3.790799904236337E+000	-2.7404371E-001	-2.7409071E-001	-6.036792665860286E-004	1.6546288E-007
2	0	0	1	3.840799902973231E+000	-2.7904239E-001	-2.7908084E-001	-6.169087398987787E-004	1.7216740E-007
2	0	0	0	3.890999901705072E+000	-2.8406462E-001	-2.8411326E-001	-6.286523190645113E-004	1.7860846E-007
2	0	0	0	3.940999900441966E+000	-2.8906259E-001	-2.8911617E-001	-6.390356228803493E-004	1.8475554E-007
2	0	0	0	3.990999899178860E+000	-2.9406303E-001	-2.9410487E-001	-6.526337285535622E-004	1.9194276E-007
2	0	0	1	4.041099897913227E+000	-2.9907477E-001	-2.9913729E-001	-6.655544044300559E-004	1.9909214E-007
2	0	0	1	4.091199896647595E+000	-3.0408183E-001	-3.0413675E-001	-6.794205155376196E-004	2.0663676E-007
2	0	0	1	4.141199895384489E+000	-3.0908397E-001	-3.0914965E-001	-6.941598555700052E-004	2.1459928E-007
2	0	0	0	4.191299894118856E+000	-3.1409356E-001	-3.1414506E-001	-7.091825590576101E-004	2.2278620E-007
2	0	0	0	4.241399892853224E+000	-3.1910267E-001	-3.1916419E-001	-7.218041289818976E-004	2.3037403E-007
2	0	0	0	4.291399891590117E+000	-3.2410502E-001	-3.2415405E-001	-7.384144871969735E-004	2.3936005E-007
2	0	0	1	4.341499890324485E+000	-3.2911223E-001	-3.2913783E-001	-7.538121683796709E-004	2.4810811E-007
2	0	0	1	4.391599889058853E+000	-3.3412349E-001	-3.3415642E-001	-7.713042679958620E-004	2.5773627E-007
2	0	0	1	4.441599887795746E+000	-3.3912471E-001	-3.3916259E-001	-7.901321155228559E-004	2.6798324E-007
2	0	0	1	4.491599886532640E+000	-3.4412181E-001	-3.4416854E-001	-8.072580413249018E-004	2.7783281E-007
2	0	0	0	4.541799885264481E+000	-3.4914425E-001	-3.4919739E-001	-8.258257695681476E-004	2.8837621E-007
2	0	0	0	4.591799884001375E+000	-3.5414377E-001	-3.5421085E-001	-8.447644657632659E-004	2.9922475E-007
2	0	0	0	4.641799882738269E+000	-3.5914260E-001	-3.5920441E-001	-8.650853372075417E-004	3.1074248E-007
2	0	0	1	4.691999881470110E+000	-3.6416501E-001	-3.6423120E-001	-8.861995529633494E-004	3.2278152E-007
2	0	0	1	4.741999880207004E+000	-3.6916226E-001	-3.6921754E-001	-9.058645551989417E-004	3.3446108E-007
2	0	0	1	4.791999878943898E+000	-3.7416348E-001	-3.7422091E-001	-9.278969942785690E-004	3.4723845E-007
2	0	0	0	4.842099877678265E+000	-3.7917474E-001	-3.7923232E-001	-9.518755349734107E-004	3.6098197E-007
2	0	0	0	4.892199876412633E+000	-3.8418227E-001	-3.8423789E-001	-9.756276621366716E-004	3.7487311E-007
2	0	0	0	4.942199875149527E+000	-3.8918447E-001	-3.8923088E-001	-9.999984056174539E-004	3.8923025E-007
2	0	0	1	4.992299873883894E+000	-3.9419344E-001	-3.9425090E-001	-1.024421791366480E-003	4.0387923E-007
2	0	0	1	5.042399872618262E+000	-3.9920300E-001	-3.9925504E-001	-1.051530626607306E-003	4.1982889E-007
2	0	0	1	5.092399871355155E+000	-4.0420499E-001	-4.0425727E-001	-1.080285170669131E-003	4.3671312E-007
2	0	0	0	5.142499870089523E+000	-4.0921217E-001	-4.0924245E-001	-1.108638095615622E-003	4.5370177E-007
2	0	0	0	5.192599868823891E+000	-4.1422391E-001	-4.1428274E-001	-1.138120439243459E-003	4.7150365E-007
2	0	0	0	5.242599867560784E+000	-4.1922498E-001	-4.1928002E-001	-1.168432528033675E-003	4.8990040E-007
2	0	0	0	5.292599866297678E+000	-4.2422217E-001	-4.2426479E-001	-1.200965573846278E-003	5.0952741E-007
2	0	0	1	5.342799865029519E+000	-4.2924482E-001	-4.2927885E-001	-1.234673935719299E-003	5.3001941E-007
2	0	0	1	5.392799863766413E+000	-4.3424323E-001	-4.3428269E-001	-1.269139234302531E-003	5.5116521E-007
2	0	0	1	5.442799862503307E+000	-4.3924299E-001	-4.3929306E-001	-1.304841522662060E-003	5.7320784E-007
2	0	0	0	5.492999861235148E+000	-4.4426548E-001	-4.4431052E-001	-1.339856602668197E-003	5.9531237E-007
2	0	0	0	5.542999859972042E+000	-4.4926247E-001	-4.4930053E-001	-1.378240107035762E-003	6.1924402E-007
2	0	0	0	5.592999858708936E+000	-4.5426390E-001	-4.5431250E-001	-1.418615175851422E-003	6.4449461E-007
2	0	0	1	5.643099857443303E+000	-4.5927483E-001	-4.5933327E-001	-1.460145396389181E-003	6.7069334E-007
2	0	0	1	5.693199856177671E+000	-4.6428239E-001	-4.6433786E-001	-1.505524805485280E-003	6.9907213E-007
2	0	0	1	5.743199854914565E+000	-4.6928456E-001	-4.6933791E-001	-1.549576796078325E-003	7.2727511E-007
2	0	0	0	5.793299853648932E+000	-4.7429329E-001	-4.7435033E-001	-1.595471921670921E-003	7.5681265E-007
2	0	0	0	5.843399852383300E+000	-4.7930351E-001	-4.7935256E-001	-1.644974864525924E-003	7.8852293E-007
2	0	0	0	5.893399851120193E+000	-4.8430577E-001	-4.8436496E-001	-1.694700731084672E-003	8.2085364E-007
2	0	0	1	5.943499849854561E+000	-4.8931205E-001	-4.8937541E-001	-1.750548536014924E-003	8.5667540E-007
2	0	0	1	5.993599848588929E+000	-4.9432412E-001	-4.9439076E-001	-1.804661954158649E-003	8.9220816E-007
2	0	0	1	6.043599847325822E+000	-4.9932435E-001	-4.9939239E-001	-1.860450526674998E-003	9.2909482E-007
2	0	0	1	6.093599846062716E+000	-5.0432259E-001	-5.0438929E-001	-1.920466138740258E-003	9.6866256E-007
2	0	0	0	6.143799844794557E+000	-5.0934500E-001	-5.0942606E-001	-1.984575939157119E-003	1.0109947E-006
2	0	0	0	6.193799843531451E+000	-5.1434350E-001	-5.1440912E-001	-2.045639150028481E-003	1.0522955E-006
2	0	0	0	6.243799842268345E+000	-5.1934320E-001	-5.1942486E-001	-2.114349510770627E-003	1.0982457E-006
2	0	0	1	6.293899841002712E+000	-5.2435595E-001	-5.2441645E-001	-2.182599567545209E-003	1.1445911E-006
2	0	0	1	6.343999839737080E+000	-5.2936172E-001	-5.2943146E-001	-2.252825705165468E-003	1.1927168E-006
2	0	0	1	6.393999838473974E+000	-5.3436434E-001	-5.3442907E-001	-2.329218397977097E-003	1.2448020E-006
2	0	0	0	6.444099837208341E+000	-5.3937453E-001	-5.3944379E-001	-2.406004392517622E-003	1.2979041E-006
2	0	0	0	6.494199835942709E+000	-5.4438323E-001	-5.4444599E-001	-2.489052716135964E-003	1.3551547E-006
2	0	0	0	6.544199834679603E+000	-5.4938507E-001	-5.4945177E-001	-2.571334988000371E-003	1.4128245E-006
2	0	0	1	6.594299833413970E+000	-5.5439341E-001	-5.5447435E-001	-2.653822195188602E-003	1.4714764E-006
2	0	0	1	6.644399832148338E+000	-5.5940348E-001	-5.5948216E-001	-2.744625956538758E-003	1.5355693E-006
2	0	0	1	6.694399830885232E+000	-5.6440544E-001	-5.6446803E-001	-2.841404965598912E-003	1.6038822E-006
2	0	0	1	6.744399829622125E+000	-5.6940216E-001	-5.6946802E-001	-2.943359368683871E-003	1.6761491E-006
2	0	0	0	6.794599828353967E+000	-5.7442451E-001	-5.7449293E-001	-3.046232875768683E-003	1.7500392E-006
2	0	0	0	6.844599827090860E+000	-5.7942444E-001	-5.7949865E-001	-3.149642660339853E-003	1.8252136E-006
2	0	0	0	6.894599825827754E+000	-5.8442295E-001	-5.8447754E-001	-3.261437817799948E-003	1.9062371E-006
2	0	0	1	6.944799824559595E+000	-5.8944541E-001	-5.8950549E-001	-3.372474948008880E-003	1.9880924E-006
2	0	0	1	6.994799823296489E+000	-5.9444273E-001	-5.9451884E-001	-3.492214107878346E-003	2.0761870E-006
2	0	0	1	7.044799822033383E+000	-5.9944379E-001	-5.9951764E-001	-3.615985274907474E-003	2.1678470E-006
2	0	0	0	7.094899820767751E+000	-6.0445553E-001	-6.0452658E-001	-3.742348890095115E-003	2.2623494E-006
2	0	0	0	7.144999819502118E+000	-6.0946256E-001	-6.0953659E-001	-3.877500893739949E-003	2.3634786E-006
2	0	0	0	7.194999818239012E+000	-6.1446470E-001	-6.1454302E-001	-4.015888610419384E-003	2.4679364E-006
2	0	0	1	7.245099816973379E+000	-6.1947441E-001	-6.1954510E-001	-4.158827825370748E-003	2.5765814E-006
2	0	0	1	7.295199815707747E+000	-6.2448281E-001	-6.2456179E-001	-4.311626361179027E-003	2.6928772E-006
2	0	0	1	7.345199814444641E+000	-6.2948531E-001	-6.2955689E-001	-4.464033150863383E-003	2.8103630E-006
2	0	0	0	7.395299813179008E+000	-6.3449299E-001	-6.3456166E-001	-4.624761092261433E-003	2.9346961E-006
2	0	0	0	7.445399811913376E+000	-6.3950419E-001	-6.3956106E-001	-4.789210416523228E-003	3.0629924E-006
2	0	0	0	7.495399810650270E+000	-6.4450538E-001	-6.4456540E-001	-4.964868070014540E-003	3.2001822E-006
2	0	0	0	7.545399809387163E+000	-6.4950264E-001	-6.4954710E-001	-5.150697446986846E-003	3.3456206E-006
2	0	0	1	7.595599808119005E+000	-6.5452516E-001	-6.5457547E-001	-5.330906612079890E-003	3.4894806E-006
2	0	0	1	7.645599806855898E+000	-6.5952396E-001	-6.5956324E-001	-5.526269504094392E-003	3.6449242E-006
2	0	0	1	7.695599805592792E+000	-6.6452324E-001	-6.6455710E-001	-5.723652790840458E-003	3.8036942E-006
2	0	0	0	7.745799804324633E+000	-6.6954571E-001	-6.6959101E-001	-5.926339331036486E-003	3.9682236E-006
2	0	0	0	7.795799803061527E+000	-6.7454296E-001	-6.7458200E-001	-6.137128908617704E-003	4.1399967E-006
2	0	0	0	7.845799801798421E+000	-6.7954439E-001	-6.7958897E-001	-6.362828439629623E-003	4.3241080E-006
2	0	0	1	7.895899800532789E+000	-6.8455571E-001	-6.8458855E-001	-6.593963875066444E-003	4.5141524E-006
2	0	0	1	7.945999799267156E+000	-6.8956250E-001	-6.8960118E-001	-6.827124318846467E-003	4.7079930E-006
2	0	0	1	7.995999798004050E+000	-6.9456494E-001	-6.9460279E-001	-7.077664698176660E-003	4.9161658E-006
2	0	0	0	8.046099796738417E+000	-6.9957405E-001	-6.9962323E-001	-7.331856285335947E-003	5.1295369E-006
2	0	0	0	8.096199795472785E+000	-7.0458376E-001	-7.0462686E-001	-7.589584900410451E-003	5.3478252E-006
2	0	0	0	8.146199794209679E+000	-7.0958591E-001	-7.0963722E-001	-7.859557805223925E-003	5.5774349E-006
2	0	0	1	8.196299792944046E+000	-7.1459311E-001	-7.1464443E-001	-8.136615090779648E-003	5.8147866E-006
2	0	0	1	8.246399791678414E+000	-7.1960437E-001	-7.1963549E-001	-8.422276987566767E-003	6.0609696E-006
2	0	0	1	8.296399790415308E+000	-7.2460520E-001	-7.2463506E-001	-8.719229296551570E-003	6.3182592E-006
2	0	0	1	8.346399789152201E+000	-7.2960287E-001	-7.2962511E-001	-9.019643302537711E-003	6.5809581E-006
2	0	0	0	8.396599787884043E+000	-7.3462522E-001	-7.3465651E-001	-9.338047124303889E-003	6.8602571E-006
2	0	0	0	8.446599786620936E+000	-7.3962408E-001	-7.3965597E-001	-9.667693428403748E-003	7.1507670E-006
2	0	0	0	8.496599785357830E+000	-7.4462414E-001	-7.4464548E-001	-1.000400387791700E-002	7.4494365E-006
2	0	0	1	8.561799783710740E+000	-7.5114471E-001	-7.5116146E-001	-1.045569970647080E-002	7.8539188E-006
2	0	0	1	8.626799782068701E+000	-7.5764620E-001	-7.5767469E-001	-1.093570342979332E-002	8.2857059E-006
2	0	0	0	8.676899780803069E+000	-7.6265275E-001	-7.6268661E-001	-1.130680643068592E-002	8.6235495E-006
2	0	0	0	8.726999779537437E+000	-7.6766455E-001	-7.6770550E-001	-1.168848331419328E-002	8.9733130E-006
2	0	0	0	8.776999778274330E+000	-7.7266538E-001	-7.7270496E-001	-1.208888023455296E-002	9.3411381E-006
2	0	0	0	8.826999777011224E+000	-7.7766347E-001	-7.7768826E-001	-1.249294584022190E-002	9.7156171E-006
2	0	0	1	8.877199775743065E+000	-7.8268552E-001	-7.8271788E-001	-1.289870971037081E-002	1.0096051E-005
2	0	0	1	8.927199774479959E+000	-7.8768390E-001	-7.8772402E-001	-1.332939558699156E-002	1.0499885E-005
2	0	0	1	8.977199773216853E+000	-7.9268408E-001	-7.9271495E-001	-1.376885504251096E-002	1.0914778E-005
2	0	0	0	9.027399771948694E+000	-7.9770601E-001	-7.9776806E-001	-1.422079669805228E-002	1.1344898E-005
2	0	0	0	9.077399770685588E+000	-8.0270272E-001	-8.0273890E-001	-1.468453066678560E-002	1.1787844E-005
2	0	0	0	9.127399769422482E+000	-8.0770510E-001	-8.0775905E-001	-1.516128057883930E-002	1.2246662E-005
2	0	0	1	9.177499768156849E+000	-8.1271553E-001	-8.1277269E-001	-1.564597743206586E-002	1.2716623E-005
2	0	0	1	9.227599766891217E+000	-8.1772327E-001	-8.1777281E-001	-1.614214888604670E-002	1.3200611E-005
2	0	0	1	9.277599765628111E+000	-8.2272601E-001	-8.2277310E-001	-1.664720050983631E-002	1.3696868E-005
2	0	0	0	9.327699764362478E+000	-8.2773381E-001	-8.2780105E-001	-1.717369070473409E-002	1.4216399E-005
2	0	0	0	9.377799763096846E+000	-8.3274400E-001	-8.3281380E-001	-1.770983637385994E-002	1.4748996E-005
2	0	0	0	9.427799761833739E+000	-8.3774650E-001	-8.3780485E-001	-1.825511830216878E-002	1.5294227E-005
2	0	0	0	9.477799760570633E+000	-8.4274310E-001	-8.4278113E-001	-1.881208262604656E-002	1.5854468E-005
2	0	0	1	9.527999759302475E+000	-8.4776515E-001	-8.4781277E-001	-1.938021013641517E-002	1.6430789E-005
2	0	0	1	9.577999758039368E+000	-8.5276520E-001	-8.5282201E-001	-1.996062921812464E-002	1.7022863E-005
2	0	0	1	9.627999756776262E+000	-8.5776341E-001	-8.5780787E-001	-2.055839077778488E-002	1.7635150E-005
2	0	0	0	9.678199755508103E+000	-8.6278588E-001	-8.6284620E-001	-2.116926276232622E-002	1.8265819E-005
2	0	0	0	9.728199754244997E+000	-8.6778378E-001	-8.6784101E-001	-2.178621562002347E-002	1.8906971E-005
2	0	0	0	9.778199752981891E+000	-8.7278473E-001	-8.7284386E-001	-2.242295559432417E-002	1.9571738E-005
2	0	0	1	9.828299751716258E+000	-8.7779659E-001	-8.7783372E-001	-2.307509801649138E-002	2.0256099E-005
2	0	0	1	9.878399750450626E+000	-8.8280290E-001	-8.8283408E-001	-2.372861204680798E-002	2.0948428E-005
2	0	0	1	9.928399749187520E+000	-8.8780546E-001	-8.8784146E-001	-2.440541270505600E-002	2.1668136E-005
2	0	0	0	9.978499747921887E+000	-8.9281476E-001	-8.9285254E-001	-2.509067199519196E-002	2.2402270E-005
2	0	0	0	1.002859974665625E+001	-8.9782363E-001	-8.9785880E-001	-2.577530408768398E-002	2.3142584E-005
2	0	0	0	1.007859974539315E+001	-9.0282625E-001	-9.0286726E-001	-2.649948435305960E-002	2.3925517E-005
2	0	0	1	1.012869974412752E+001	-9.0783417E-001	-9.0787691E-001	-2.722315022061950E-002	2.4715269E-005
2	0	0	1	1.017879974286188E+001	-9.1284448E-001	-9.1288561E-001	-2.798421576621879E-002	2.5546387E-005
2	0	0	1	1.022879974159878E+001	-9.1784650E-001	-9.1787440E-001	-2.873036279265996E-002	2.6370864E-005
2	0	0	1	1.027879974033567E+001	-9.2284292E-001	-9.2289311E-001	-2.947003288671246E-002	2.7197690E-005
2	0	0	0	1.032899973906751E+001	-9.2786527E-001	-9.2791474E-001	-3.024387429260922E-002	2.8063736E-005
2	0	0	0	1.037899973780441E+001	-9.3286502E-001	-9.3291068E-001	-3.103489310415714E-002	2.8952783E-005
2	0	0	0	1.042899973654130E+001	-9.3786418E-001	-9.3790346E-001	-3.184078360876141E-002	2.9863580E-005
2	0	0	1	1.047919973527314E+001	-9.4288629E-001	-9.4293201E-001	-3.265673002659847E-002	3.0793075E-005
2	0	0	1	1.052919973401004E+001	-9.4788396E-001	-9.4793749E-001	-3.346841484346691E-002	3.1725966E-005
2	0	0	1	1.057919973274693E+001	-9.5288455E-001	-9.5291388E-001	-3.430569170217530E-002	3.2690368E-005
2	0	0	0	1.062929973148130E+001	-9.5789599E-001	-9.5789498E-001	-3.515308829219077E-002	3.3672968E-005
2	0	0	0	1.067939973021566E+001	-9.6290326E-001	-9.6294212E-001	-3.603631526525919E-002	3.4700886E-005
2	0	0	0	1.072939972895256E+001	-9.6790576E-001	-9.6794188E-001	-3.691625542254989E-002	3.5732788E-005
2	0	0	1	1.077949972768693E+001	-9.7291505E-001	-9.7294390E-001	-3.779842349771154E-002	3.6775746E-005
2	0	0	1	1.082959972642129E+001	-9.7792417E-001	-9.7796559E-001	-3.869566601647911E-002	3.7843030E-005
2	0	0	1	1.087959972515819E+001	-9.8292679E-001	-9.8296934E-001	-3.961148720339569E-002	3.8936876E-005
2	0	0	0	1.092969972389255E+001	-9.8793334E-001	-9.8797590E-001	-4.052922994207198E-002	4.0041901E-005
2	0	0	0	1.097979972262692E+001	-9.9294472E-001	-9.9296349E-001	-4.147776691384597E-002	4.1185907E-005
2	0	0	0	1.102749972142192E+001	-9.9771571E-001	-9.9775112E-001	-4.237948650019846E-002	4.2284180E-005
2	0	0	1	1.105039972084342E+001	-1.0000215E+000	-1.0000570E+000	-4.282318614423275E-002	4.2825628E-005