EC-Lab ASCII FILE
Nb header lines : 55                          

I-V Characterization

Run on channel : 1 (SN 6514)
User : 
CE vs. WE compliance from -10 V to 10 V
Electrode connection : standard
Ewe ctrl range : min = -1.10 V, max = 0.20 V
Safety Limits :
	Do not start on E overload
Acquisition started on : 06/15/2016 18:36:48
Saved on :
	File : B125-G54-UN-G-D1GB-C9 FW 100mVs_01_IVC_C01.mpr
	Directory : E:\EC-Lab measurements\B125-G54-UN-G-D1GB\
	Host : 10.0.2.15
Device : VSP (SN 0295)
Address : USB
EC-Lab for windows v11.01 (software)
Internet server v11.00 (firmware)
Command interpretor v11.00 (firmware)
Electrode material : 
Initial state : 
Electrolyte : 
Comments : 
Electrode surface area : 0.001 cm²
Characteristic mass : 0.001 g
Equivalent Weight : 0.000 g/eq.
Density : 0.000 g/cm3
tR (h:m:s)          0:00:0.0000         
dER/dt (mV/h)       0.0                 
dER (mV)            0                   
dtR (s)             0.0000              
dE/dt               100.000             
dE/dt unit          mV/s                
Ei (V)              0.100               
vs.                 Ref                 
EL (V)              -1.000              
vs.                 Ref                 
record              <I>                 
dI                  0.000               
unit dI             µA                  
tI (s)              0.1000              
step percent        100                 
N                   100                 
E range min (V)     -1.100              
E range max (V)     0.200               
I Range             Auto                
I Range min         Unset               
I Range max         Unset               
I Range init        Unset               
Bandwidth           5                   

mode	ox/red	error	control changes	time/s	control/V	Ewe/V	<I>/mA	P/W
2	0	0	1	1.399999964633025E-001	9.1036104E-002	9.0903498E-002	1.143871486186981E+000	1.0398192E-004
2	0	0	0	1.652999958241708E-001	8.8507779E-002	8.8444106E-002	1.126137724343896E+000	9.9600242E-005
2	0	0	0	2.153999945585383E-001	8.3497487E-002	8.3423488E-002	1.126487406996858E+000	9.3975512E-005
2	0	0	0	2.653999932954321E-001	7.8495361E-002	7.8432374E-002	1.125521050710424E+000	8.8277287E-005
2	0	0	0	3.153999920323258E-001	7.3499031E-002	7.3429637E-002	1.126248918436179E+000	8.2700048E-005
2	0	0	1	3.655999907641672E-001	6.8476625E-002	6.8395175E-002	1.125521884572406E+000	7.6980265E-005
2	0	0	1	4.155999895010609E-001	6.3476719E-002	6.3402206E-002	1.125422626549163E+000	7.1354276E-005
2	0	0	1	4.655999882379547E-001	5.8478147E-002	5.8411889E-002	1.125557628553487E+000	6.5745946E-005
2	0	0	0	5.157999869697960E-001	5.3455751E-002	5.3375002E-002	1.125579605956512E+000	6.0077815E-005
2	0	0	0	5.657999857066898E-001	4.8458032E-002	4.8374381E-002	1.123798715137522E+000	5.4363067E-005
2	0	0	0	6.157999844435835E-001	4.3457463E-002	4.3376420E-002	1.121871561427257E+000	4.8662772E-005
2	0	0	1	6.658999831779511E-001	3.8445581E-002	3.8369071E-002	1.121093033307069E+000	4.3015298E-005
2	0	0	1	7.159999819123186E-001	3.3438947E-002	3.3352301E-002	1.120082767916266E+000	3.7357338E-005
2	0	0	1	7.659999806492124E-001	2.8436577E-002	2.8355304E-002	1.118604321692777E+000	3.1718366E-005
2	0	0	0	8.160999793835799E-001	2.3426915E-002	2.3346806E-002	1.116870978137669E+000	2.6075370E-005
2	0	0	0	8.661999781179475E-001	1.8418083E-002	1.8335519E-002	1.115972175494470E+000	2.0461930E-005
2	0	0	0	9.161999768548412E-001	1.3415696E-002	1.3326121E-002	1.116600150444308E+000	1.4879949E-005
2	0	0	1	9.662999755892088E-001	8.4082689E-003	8.3182491E-003	1.116219841393463E+000	9.2849950E-006
2	0	0	1	1.016399974323576E+000	3.3974070E-003	3.3191179E-003	1.114611967495259E+000	3.6995286E-006
2	0	0	1	1.066399973060470E+000	-1.6041722E-003	-1.7025232E-003	1.112040382181879E+000	1.8932745E-006
2	0	0	1	1.116399971797364E+000	-6.6011264E-003	-6.7125149E-003	1.110754975356542E+000	7.4559593E-006
2	0	0	0	1.166599970529205E+000	-1.1623513E-002	-1.1719273E-002	1.108134499533870E+000	1.2986531E-005
2	0	0	0	1.216599969266099E+000	-1.6622892E-002	-1.6693916E-002	1.104208976672840E+000	1.8433571E-005
2	0	0	0	1.266599968002993E+000	-2.1622069E-002	-2.1688897E-002	1.102835262200554E+000	2.3919281E-005
2	0	0	1	1.316799966734834E+000	-2.6644254E-002	-2.6719294E-002	1.101539492113313E+000	2.9432358E-005
2	0	0	1	1.366799965471728E+000	-3.1641606E-002	-3.1720966E-002	1.099152231206871E+000	3.4866171E-005
2	0	0	1	1.416799964208622E+000	-3.6642808E-002	-3.6719792E-002	1.096044632787423E+000	4.0246530E-005
2	0	0	0	1.466899962942989E+000	-4.1654095E-002	-4.1721035E-002	1.093107959389767E+000	4.5605597E-005
2	0	0	0	1.516999961677357E+000	-4.6661325E-002	-4.6737585E-002	1.091396549047218E+000	5.1009240E-005
2	0	0	0	1.566999960414250E+000	-5.1663727E-002	-5.1741581E-002	1.088978891563555E+000	5.6345489E-005
2	0	0	1	1.617099959148618E+000	-5.6672819E-002	-5.6749709E-002	1.086144419152911E+000	6.1638377E-005
2	0	0	1	1.667199957882985E+000	-6.1682042E-002	-6.1777260E-002	1.083989258340182E+000	6.6965884E-005
2	0	0	1	1.717199956619879E+000	-6.6684492E-002	-6.6759929E-002	1.082064117265560E+000	7.2238523E-005
2	0	0	0	1.767299955354247E+000	-7.1691535E-002	-7.1772873E-002	1.079139146227067E+000	7.7452918E-005
2	0	0	0	1.817399954088614E+000	-7.6702997E-002	-7.6777197E-002	1.076616997279813E+000	8.2659637E-005
2	0	0	0	1.867399952825508E+000	-8.1704050E-002	-8.1788085E-002	1.074978140266360E+000	8.7920402E-005
2	0	0	0	1.917399951562402E+000	-8.6701579E-002	-8.6780436E-002	1.072954650398768E+000	9.3111470E-005
2	0	0	1	1.967599950294243E+000	-9.1723777E-002	-9.1797538E-002	1.068627605399073E+000	9.8097385E-005
2	0	0	1	2.017599949031137E+000	-9.6722797E-002	-9.6789435E-002	1.065843938863030E+000	1.0316243E-004
2	0	0	1	2.067599947768031E+000	-1.0172230E-001	-1.0178732E-001	1.063339265865498E+000	1.0823445E-004
2	0	0	0	2.117799946499872E+000	-1.0674473E-001	-1.0682899E-001	1.059505102163636E+000	1.1318586E-004
2	0	0	0	2.167799945236766E+000	-1.1174154E-001	-1.1179486E-001	1.056301085605121E+000	1.1808903E-004
2	0	0	0	2.217799943973660E+000	-1.1674330E-001	-1.1680271E-001	1.053319663538241E+000	1.2303059E-004
2	0	0	1	2.267899942708027E+000	-1.2175390E-001	-1.2182243E-001	1.049518005386096E+000	1.2785483E-004
2	0	0	1	2.317999941442395E+000	-1.2676178E-001	-1.2682790E-001	1.045297028994160E+000	1.3257282E-004
2	0	0	1	2.367999940179288E+000	-1.3176396E-001	-1.3183145E-001	1.041463877787640E+000	1.3729770E-004
2	0	0	0	2.418099938913656E+000	-1.3677260E-001	-1.3683373E-001	1.036134038908884E+000	1.4177809E-004
2	0	0	0	2.468199937648023E+000	-1.4178240E-001	-1.4184940E-001	1.032829984965300E+000	1.4650631E-004
2	0	0	0	2.518199936384917E+000	-1.4678501E-001	-1.4686936E-001	1.030235876083277E+000	1.5131009E-004
2	0	0	1	2.568299935119285E+000	-1.5179135E-001	-1.5187488E-001	1.028107908238924E+000	1.5614377E-004
2	0	0	1	2.618399933853652E+000	-1.5680337E-001	-1.5689632E-001	1.025072940413713E+000	1.6083017E-004
2	0	0	1	2.668399932590546E+000	-1.6180387E-001	-1.6188887E-001	1.020418983750865E+000	1.6519448E-004
2	0	0	1	2.718399931327440E+000	-1.6680171E-001	-1.6689387E-001	1.017711762451243E+000	1.6984985E-004
2	0	0	0	2.768599930059281E+000	-1.7182417E-001	-1.7193037E-001	1.013375753736490E+000	1.7423007E-004
2	0	0	0	2.818599928796175E+000	-1.7682274E-001	-1.7691904E-001	1.008983750402649E+000	1.7850845E-004
2	0	0	0	2.868599927533069E+000	-1.8182287E-001	-1.8193187E-001	1.004268556078149E+000	1.8270845E-004
2	0	0	1	2.918699926267436E+000	-1.8683498E-001	-1.8694212E-001	1.001173634173524E+000	1.8716152E-004
2	0	0	1	2.968799925001804E+000	-1.9184139E-001	-1.9195104E-001	9.980948671444594E-001	1.9158535E-004
2	0	0	1	3.018799923738698E+000	-1.9684348E-001	-1.9696887E-001	9.942122440148822E-001	1.9582886E-004
2	0	0	0	3.068899922473065E+000	-2.0185374E-001	-2.0197196E-001	9.903103062586580E-001	2.0001491E-004
2	0	0	0	3.118999921207433E+000	-2.0686212E-001	-2.0698233E-001	9.873258251980435E-001	2.0435899E-004
2	0	0	0	3.168999919944326E+000	-2.1186452E-001	-2.1197829E-001	9.817921838201258E-001	2.0811862E-004
2	0	0	1	3.219099918678694E+000	-2.1687251E-001	-2.1698713E-001	9.776244779729013E-001	2.1213193E-004
2	0	0	1	3.269199917413061E+000	-2.2188304E-001	-2.2199157E-001	9.724955283091710E-001	2.1588581E-004
2	0	0	1	3.319199916149955E+000	-2.2688508E-001	-2.2699958E-001	9.690011641441307E-001	2.1996287E-004
2	0	0	1	3.369199914886849E+000	-2.3188141E-001	-2.3199701E-001	9.638151967577624E-001	2.2360224E-004
2	0	0	0	3.419399913618690E+000	-2.3690368E-001	-2.3700783E-001	9.591371193925671E-001	2.2732301E-004
2	0	0	0	3.469399912355584E+000	-2.4190374E-001	-2.4201611E-001	9.552743338018539E-001	2.3119178E-004
2	0	0	0	3.519399911092478E+000	-2.4690235E-001	-2.4699874E-001	9.506646630160915E-001	2.3481298E-004
2	0	0	1	3.569599909824319E+000	-2.5192451E-001	-2.5200620E-001	9.470591393345753E-001	2.3866478E-004
2	0	0	1	3.619599908561213E+000	-2.5692251E-001	-2.5701004E-001	9.429098856954887E-001	2.4233731E-004
2	0	0	1	3.669599907298107E+000	-2.6192281E-001	-2.6200679E-001	9.386320102459911E-001	2.4592795E-004
2	0	0	0	3.719699906032474E+000	-2.6693475E-001	-2.6701310E-001	9.346335119842610E-001	2.4955938E-004
2	0	0	0	3.769799904766842E+000	-2.7194163E-001	-2.7201322E-001	9.299513989610837E-001	2.5295909E-004
2	0	0	0	3.819799903503736E+000	-2.7694398E-001	-2.7702010E-001	9.248042463454063E-001	2.5618935E-004
2	0	0	1	3.869899902238103E+000	-2.8195354E-001	-2.8203675E-001	9.202249426188729E-001	2.5953725E-004
2	0	0	1	3.919999900972471E+000	-2.8696260E-001	-2.8705022E-001	9.152014986067520E-001	2.6270878E-004
2	0	0	1	3.969999899709364E+000	-2.9196498E-001	-2.9205865E-001	9.110202015567328E-001	2.6607132E-004
2	0	0	0	4.020099898443732E+000	-2.9697219E-001	-2.9706162E-001	9.057743906916507E-001	2.6907082E-004
2	0	0	0	4.070199897178099E+000	-3.0198342E-001	-3.0208465E-001	9.010411174980568E-001	2.7219069E-004
2	0	0	0	4.120199895914993E+000	-3.0698466E-001	-3.0707568E-001	8.960061429894139E-001	2.7514171E-004
2	0	0	0	4.170199894651887E+000	-3.1198174E-001	-3.1206515E-001	8.918295208570193E-001	2.7830893E-004
2	0	0	1	4.220399893383728E+000	-3.1700414E-001	-3.1709391E-001	8.867648027318609E-001	2.8118771E-004
2	0	0	1	4.270399892120622E+000	-3.2200363E-001	-3.2210016E-001	8.823766349717914E-001	2.8421366E-004
2	0	0	1	4.320399890857516E+000	-3.2700253E-001	-3.2708210E-001	8.756909453171247E-001	2.8642284E-004
2	0	0	0	4.370599889589357E+000	-3.3202505E-001	-3.3209014E-001	8.702045944062569E-001	2.8898637E-004
2	0	0	0	4.420599888326251E+000	-3.3702219E-001	-3.3708686E-001	8.648296248037131E-001	2.9152271E-004
2	0	0	0	4.470599887063145E+000	-3.4202343E-001	-3.4210250E-001	8.599499493974487E-001	2.9419104E-004
2	0	0	1	4.520699885797512E+000	-3.4703466E-001	-3.4712735E-001	8.542573117527343E-001	2.9653608E-004
2	0	0	1	4.570799884531880E+000	-3.5204214E-001	-3.5213402E-001	8.482724062273093E-001	2.9870556E-004
2	0	0	1	4.620799883268774E+000	-3.5704431E-001	-3.5713023E-001	8.410298113773189E-001	3.0035718E-004
2	0	0	0	4.670899882003141E+000	-3.6205333E-001	-3.6214903E-001	8.352766365219040E-001	3.0249462E-004
2	0	0	0	4.720999880737509E+000	-3.6706275E-001	-3.6715528E-001	8.285955557003977E-001	3.0422324E-004
2	0	0	0	4.770999879474402E+000	-3.7206498E-001	-3.7215322E-001	8.228733072461871E-001	3.0623496E-004
2	0	0	1	4.821099878208770E+000	-3.7707210E-001	-3.7715006E-001	8.164718763606978E-001	3.0793241E-004
2	0	0	1	4.871199876943138E+000	-3.8208386E-001	-3.8217130E-001	8.094268639300530E-001	3.0933972E-004
2	0	0	1	4.921199875680031E+000	-3.8708493E-001	-3.8716906E-001	8.020519202610306E-001	3.1052969E-004
2	0	0	1	4.971199874416925E+000	-3.9208210E-001	-3.9216962E-001	7.953518466299254E-001	3.1191282E-004
2	0	0	0	5.021399873148766E+000	-3.9710474E-001	-3.9718628E-001	7.890214487670697E-001	3.1338850E-004
2	0	0	0	5.071399871885660E+000	-4.0210325E-001	-4.0220228E-001	7.821505006627563E-001	3.1458272E-004
2	0	0	0	5.121399870622554E+000	-4.0710294E-001	-4.0719074E-001	7.753645642864120E-001	3.1572126E-004
2	0	0	1	5.171599869354395E+000	-4.1212541E-001	-4.1220945E-001	7.671069660776872E-001	3.1620875E-004
2	0	0	1	5.221599868091289E+000	-4.1712233E-001	-4.1721937E-001	7.593844188455563E-001	3.1682989E-004
2	0	0	1	5.271599866828183E+000	-4.2212388E-001	-4.2220190E-001	7.513231523807491E-001	3.1721007E-004
2	0	0	0	5.321699865562550E+000	-4.2713469E-001	-4.2722166E-001	7.431547753849168E-001	3.1749182E-004
2	0	0	0	5.371799864296918E+000	-4.3214238E-001	-4.3222985E-001	7.349269740463278E-001	3.1765737E-004
2	0	0	0	5.421799863033812E+000	-4.3714449E-001	-4.3723235E-001	7.264300678394964E-001	3.1761872E-004
2	0	0	1	5.471899861768179E+000	-4.4215330E-001	-4.4224384E-001	7.186616640484711E-001	3.1782369E-004
2	0	0	1	5.521999860502547E+000	-4.4716346E-001	-4.4723150E-001	7.104226088799912E-001	3.1772337E-004
2	0	0	1	5.571999859239440E+000	-4.5216575E-001	-4.5224610E-001	7.007689810334963E-001	3.1692005E-004
2	0	0	0	5.622099857973808E+000	-4.5717198E-001	-4.5727086E-001	6.921302860042928E-001	3.1649100E-004
2	0	0	0	5.672199856708176E+000	-4.6218413E-001	-4.6228907E-001	6.842050764043872E-001	3.1630052E-004
2	0	0	0	5.722199855445069E+000	-4.6718425E-001	-4.6727231E-001	6.752635581623672E-001	3.1553197E-004
2	0	0	0	5.772199854181963E+000	-4.7218239E-001	-4.7228587E-001	6.665587459696636E-001	3.1480627E-004
2	0	0	1	5.822399852913804E+000	-4.7720498E-001	-4.7730199E-001	6.576482928655345E-001	3.1389683E-004
2	0	0	1	5.872399851650698E+000	-4.8220348E-001	-4.8229745E-001	6.482684176874649E-001	3.1265820E-004
2	0	0	1	5.922399850387592E+000	-4.8720318E-001	-4.8730889E-001	6.381590390948553E-001	3.1098057E-004
2	0	0	0	5.972499849121959E+000	-4.9221593E-001	-4.9232394E-001	6.285585587798490E-001	3.0945442E-004
2	0	0	0	6.022599847856327E+000	-4.9722171E-001	-4.9732697E-001	6.185130551883118E-001	3.0760322E-004
2	0	0	0	6.072599846593221E+000	-5.0222427E-001	-5.0232774E-001	6.088791512324081E-001	3.0585690E-004
2	0	0	1	6.122699845327588E+000	-5.0723445E-001	-5.0735164E-001	5.982621800608232E-001	3.0352929E-004
2	0	0	1	6.172799844061956E+000	-5.1224291E-001	-5.1236814E-001	5.878187904881829E-001	3.0117962E-004
2	0	0	1	6.222799842798850E+000	-5.1724505E-001	-5.1735723E-001	5.770447901395475E-001	2.9853830E-004
2	0	0	0	6.272899841533217E+000	-5.2225327E-001	-5.2236164E-001	5.662253019563419E-001	2.9577437E-004
2	0	0	0	6.322999840267585E+000	-5.2726346E-001	-5.2737606E-001	5.552526255766077E-001	2.9282694E-004
2	0	0	0	6.372999839004478E+000	-5.3226542E-001	-5.3236777E-001	5.438015607487063E-001	2.8950241E-004
2	0	0	0	6.422999837741372E+000	-5.3726208E-001	-5.3737247E-001	5.323453695969942E-001	2.8606775E-004
2	0	0	1	6.473199836473214E+000	-5.4228473E-001	-5.4239202E-001	5.205373782940013E-001	2.8233533E-004
2	0	0	1	6.523199835210107E+000	-5.4728442E-001	-5.4739624E-001	5.088804435720129E-001	2.7855925E-004
2	0	0	1	6.573199833947001E+000	-5.5228281E-001	-5.5241519E-001	4.966944033390890E-001	2.7438154E-004
2	0	0	0	6.623399832678842E+000	-5.5730534E-001	-5.5742717E-001	4.837169274352959E-001	2.6963695E-004
2	0	0	0	6.688699831029226E+000	-5.6383228E-001	-5.6394333E-001	4.676097431665376E-001	2.6370538E-004
2	0	0	1	6.753999829379609E+000	-5.7036304E-001	-5.7043082E-001	4.494549607830343E-001	2.5638295E-004
2	0	0	1	6.803999828116503E+000	-5.7536387E-001	-5.7544255E-001	4.359562911984591E-001	2.5086780E-004
2	0	0	0	6.854099826850870E+000	-5.8037561E-001	-5.8044648E-001	4.223707038448984E-001	2.4516360E-004
2	0	0	0	6.904199825585238E+000	-5.8538234E-001	-5.8543444E-001	4.083555226074420E-001	2.3906538E-004
2	0	0	0	6.954199824322131E+000	-5.9038454E-001	-5.9045780E-001	3.943221436023929E-001	2.3283059E-004
2	0	0	1	7.004299823056499E+000	-5.9539402E-001	-5.9546244E-001	3.796669524642244E-001	2.2607741E-004
2	0	0	1	7.054399821790867E+000	-6.0040307E-001	-6.0047466E-001	3.655100722868645E-001	2.1947954E-004
2	0	0	1	7.104399820527760E+000	-6.0540545E-001	-6.0547161E-001	3.510898899512984E-001	2.1257496E-004
2	0	0	0	7.154499819262128E+000	-6.1041307E-001	-6.1047286E-001	3.364255491731538E-001	2.0537866E-004
2	0	0	0	7.204599817996495E+000	-6.1542404E-001	-6.1549586E-001	3.208208049078609E-001	1.9746387E-004
2	0	0	0	7.254599816733389E+000	-6.2042558E-001	-6.2049323E-001	3.055312707517999E-001	1.8958008E-004
2	0	0	0	7.304599815470283E+000	-6.2542206E-001	-6.2548643E-001	2.902539418863235E-001	1.8154990E-004
2	0	0	1	7.354799814202124E+000	-6.3044459E-001	-6.3051814E-001	2.744168712753976E-001	1.7302482E-004
2	0	0	1	7.404799812939018E+000	-6.3544416E-001	-6.3551271E-001	2.586875810144464E-001	1.6439924E-004
2	0	0	1	7.454799811675912E+000	-6.4044356E-001	-6.4048982E-001	2.424704330426994E-001	1.5529984E-004
2	0	0	0	7.504999810407753E+000	-6.4546543E-001	-6.4550996E-001	2.260838207847158E-001	1.4593935E-004
2	0	0	0	7.554999809144647E+000	-6.5046310E-001	-6.5050912E-001	2.096160834486074E-001	1.3635718E-004
2	0	0	0	7.604999807881541E+000	-6.5546423E-001	-6.5549815E-001	1.931309418646274E-001	1.2659698E-004
2	0	0	1	7.655099806615908E+000	-6.6047519E-001	-6.6051793E-001	1.761568100380204E-001	1.1635473E-004
2	0	0	1	7.705199805350276E+000	-6.6548276E-001	-6.6552466E-001	1.591152773715665E-001	1.0589514E-004
2	0	0	1	7.755199804087169E+000	-6.7048502E-001	-6.7053241E-001	1.420967430333657E-001	9.5280469E-005
2	0	0	0	7.805299802821537E+000	-6.7549413E-001	-6.7553216E-001	1.247691975464433E-001	8.4285602E-005
2	0	0	0	7.855399801555905E+000	-6.8050373E-001	-6.8053043E-001	1.073639265001307E-001	7.3064417E-005
2	0	0	0	7.905399800292798E+000	-6.8550605E-001	-6.8553603E-001	8.973696526464536E-002	6.1517923E-005
2	0	0	1	7.955499799027166E+000	-6.9051266E-001	-6.9054115E-001	7.194599486839967E-002	4.9681668E-005
2	0	0	1	8.005599797761533E+000	-6.9552428E-001	-6.9554949E-001	5.399595563293755E-002	3.7556860E-005
2	0	0	1	8.055599796498427E+000	-7.0052522E-001	-7.0055020E-001	3.598028314122770E-002	2.5205994E-005
2	0	0	1	8.120599794856389E+000	-7.0702815E-001	-7.0702446E-001	1.259747664834837E-002	8.9067244E-006
2	0	0	0	8.185799793209299E+000	-7.1354324E-001	-7.1357936E-001	-1.111572060771395E-002	7.9319489E-006
2	0	0	0	8.235799791946192E+000	-7.1854526E-001	-7.1856761E-001	-2.942287432171931E-002	2.1142325E-005
2	0	0	1	8.285899790680560E+000	-7.2355396E-001	-7.2357202E-001	-4.778280571087240E-002	3.4574303E-005
2	0	0	1	8.335999789414927E+000	-7.2856385E-001	-7.2859633E-001	-6.619836383012348E-002	4.8231886E-005
2	0	0	1	8.385999788151821E+000	-7.3356593E-001	-7.3358077E-001	-8.472339072246127E-002	6.2151448E-005
2	0	0	0	8.451199786504731E+000	-7.4008429E-001	-7.4012184E-001	-1.089394922708312E-001	8.0628495E-005
2	0	0	0	8.516199784862692E+000	-7.4658298E-001	-7.4661630E-001	-1.329334997627922E-001	9.9250319E-005
2	0	0	0	8.566199783599586E+000	-7.5158471E-001	-7.5161904E-001	-1.515013610417826E-001	1.1387131E-004
2	0	0	1	8.616299782333954E+000	-7.5659519E-001	-7.5663328E-001	-1.701556414319532E-001	1.2874542E-004
2	0	0	1	8.666399781068321E+000	-7.6160312E-001	-7.6163626E-001	-1.887590609658583E-001	1.4376575E-004
2	0	0	1	8.716399779805215E+000	-7.6660538E-001	-7.6665121E-001	-2.072060032144765E-001	1.5885473E-004
2	0	0	0	8.766499778539583E+000	-7.7161390E-001	-7.7166158E-001	-2.258320720480558E-001	1.7426594E-004
2	0	0	0	8.816599777273950E+000	-7.7662426E-001	-7.7668262E-001	-2.441701071286135E-001	1.8964268E-004
2	0	0	0	8.866599776010844E+000	-7.8162652E-001	-7.8166705E-001	-2.624843409288040E-001	2.0517535E-004
2	0	0	1	8.916699774745211E+000	-7.8663254E-001	-7.8668582E-001	-2.806762086904500E-001	2.2080400E-004
2	0	0	1	8.966799773479579E+000	-7.9164505E-001	-7.9168814E-001	-2.988876972158288E-001	2.3662584E-004
2	0	0	1	9.016799772216473E+000	-7.9664499E-001	-7.9671162E-001	-3.165746324638343E-001	2.5221868E-004
2	0	0	1	9.066799770953367E+000	-8.0164331E-001	-8.0168694E-001	-3.342478028783318E-001	2.6796211E-004
2	0	0	0	9.116999769685208E+000	-8.0666578E-001	-8.0672938E-001	-3.517360597237325E-001	2.8375580E-004
2	0	0	0	9.166999768422102E+000	-8.1166422E-001	-8.1171983E-001	-3.698557497465877E-001	3.0021925E-004
2	0	0	0	9.216999767158995E+000	-8.1666422E-001	-8.1672698E-001	-3.871926748655614E-001	3.1623070E-004
2	0	0	1	9.267099765893363E+000	-8.2167649E-001	-8.2174224E-001	-4.040925003496687E-001	3.3205986E-004
2	0	0	1	9.317199764627730E+000	-8.2668251E-001	-8.2675833E-001	-4.209345994737426E-001	3.4801118E-004
2	0	0	1	9.367199763364624E+000	-8.3168495E-001	-8.3175302E-001	-4.377596453315711E-001	3.6410789E-004
2	0	0	0	9.417299762098992E+000	-8.3669508E-001	-8.3675432E-001	-4.545582185887946E-001	3.8035357E-004
2	0	0	0	9.467399760833359E+000	-8.4170389E-001	-8.4175634E-001	-4.709333198805842E-001	3.9641111E-004
2	0	0	0	9.517399759570253E+000	-8.4670615E-001	-8.4676206E-001	-4.872310140734297E-001	4.1256874E-004
2	0	0	1	9.567499758304621E+000	-8.5171378E-001	-8.5178196E-001	-5.036914774540868E-001	4.2903531E-004
2	0	0	1	9.617599757038988E+000	-8.5672432E-001	-8.5679573E-001	-5.201499990241634E-001	4.4566230E-004
2	0	0	1	9.667599755775882E+000	-8.6172605E-001	-8.6179137E-001	-5.362365108583438E-001	4.6212401E-004
2	0	0	1	9.717599754512776E+000	-8.6672300E-001	-8.6679560E-001	-5.525078198433335E-001	4.7891136E-004
2	0	0	0	9.767799753244617E+000	-8.7174541E-001	-8.7181383E-001	-5.675700959185868E-001	4.9481547E-004
2	0	0	0	9.817799751981511E+000	-8.7674534E-001	-8.7679255E-001	-5.829971424009347E-001	5.1116757E-004
2	0	0	0	9.867799750718405E+000	-8.8174361E-001	-8.8179725E-001	-5.981512565614038E-001	5.2744814E-004
2	0	0	1	9.917999749450246E+000	-8.8676637E-001	-8.8680911E-001	-6.128501980171119E-001	5.4348115E-004
2	0	0	1	9.967999748187140E+000	-8.9176351E-001	-8.9179623E-001	-6.278702440607038E-001	5.5993232E-004
2	0	0	1	1.001799974692403E+001	-8.9676452E-001	-8.9680690E-001	-6.425010257225861E-001	5.7619932E-004
2	0	0	0	1.006809974565840E+001	-9.0177625E-001	-9.0183192E-001	-6.565320439034603E-001	5.9208157E-004
2	0	0	0	1.011819974439277E+001	-9.0678340E-001	-9.0684289E-001	-6.700216868616202E-001	6.0760439E-004
2	0	0	0	1.016819974312966E+001	-9.1178542E-001	-9.1184407E-001	-6.835688082995652E-001	6.2330818E-004
2	0	0	1	1.021829974186403E+001	-9.1679513E-001	-9.1685307E-001	-6.965914649311280E-001	6.3867203E-004
2	0	0	1	1.026839974059840E+001	-9.2180383E-001	-9.2184818E-001	-7.091579149637894E-001	6.5373594E-004
2	0	0	1	1.031839973933529E+001	-9.2680597E-001	-9.2686343E-001	-7.218151393869636E-001	6.6902407E-004
2	0	0	0	1.036849973806966E+001	-9.3181366E-001	-9.3188298E-001	-7.344535216525614E-001	6.8442471E-004
2	0	0	0	1.041859973680403E+001	-9.3682498E-001	-9.3687034E-001	-7.468032539247460E-001	6.9965783E-004
2	0	0	0	1.046859973554092E+001	-9.4182622E-001	-9.4188219E-001	-7.590828153034810E-001	7.1496656E-004
2	0	0	0	1.051859973427781E+001	-9.4682336E-001	-9.4688016E-001	-7.705223930565079E-001	7.2959234E-004
2	0	0	1	1.056879973300966E+001	-9.5184553E-001	-9.5189279E-001	-7.826389462198140E-001	7.4498839E-004
2	0	0	1	1.061879973174655E+001	-9.5684457E-001	-9.5686507E-001	-7.937705271113007E-001	7.5953128E-004
2	0	0	1	1.066879973048344E+001	-9.6184403E-001	-9.6190464E-001	-8.049173899362789E-001	7.7425380E-004
2	0	0	0	1.071899972921528E+001	-9.6686643E-001	-9.6690553E-001	-8.151464363990595E-001	7.8816962E-004
2	0	0	0	1.076899972795218E+001	-9.7186381E-001	-9.7191638E-001	-8.255351183920890E-001	8.0235110E-004
2	0	0	0	1.081899972668907E+001	-9.7686493E-001	-9.7691709E-001	-8.358170642143108E-001	8.1652397E-004
2	0	0	1	1.086909972542344E+001	-9.8187625E-001	-9.8194575E-001	-8.459701531993196E-001	8.3069678E-004
2	0	0	1	1.091919972415781E+001	-9.8688334E-001	-9.8695302E-001	-8.555123547404211E-001	8.4435049E-004
2	0	0	1	1.096919972289470E+001	-9.9188548E-001	-9.9193758E-001	-8.663453928439520E-001	8.5936056E-004
2	0	0	0	1.101929972162907E+001	-9.9689478E-001	-9.9692518E-001	-8.761181225437668E-001	8.7342423E-004
2	0	0	0	1.104729972092173E+001	-9.9969637E-001	-9.9977231E-001	-8.851912106059618E-001	8.8498968E-004
2	0	0	1	1.105039972084342E+001	-1.0000215E+000	-1.0000761E+000	-8.847564160823822E-001	8.8482373E-004