EC-Lab ASCII FILE
Nb header lines : 55                          

I-V Characterization

Run on channel : 1 (SN 6514)
User : 
CE vs. WE compliance from -10 V to 10 V
Electrode connection : standard
Ewe ctrl range : min = -1.10 V, max = 0.20 V
Safety Limits :
	Do not start on E overload
Acquisition started on : 06/15/2016 19:01:05
Saved on :
	File : B125-G54-UN-G-D1GB-C14 BW 10mVs_C01.mpr
	Directory : E:\EC-Lab measurements\B125-G54-UN-G-D1GB\
	Host : 10.0.2.15
Device : VSP (SN 0295)
Address : USB
EC-Lab for windows v11.01 (software)
Internet server v11.00 (firmware)
Command interpretor v11.00 (firmware)
Electrode material : 
Initial state : 
Electrolyte : 
Comments : 
Electrode surface area : 0.001 cm²
Characteristic mass : 0.001 g
Equivalent Weight : 0.000 g/eq.
Density : 0.000 g/cm3
tR (h:m:s)          0:00:0.0000         
dER/dt (mV/h)       0.0                 
dER (mV)            0                   
dtR (s)             0.0000              
dE/dt               10.000              
dE/dt unit          mV/s                
Ei (V)              -1.000              
vs.                 Ref                 
EL (V)              0.100               
vs.                 Ref                 
record              <I>                 
dI                  0.000               
unit dI             µA                  
tI (s)              0.1000              
step percent        100                 
N                   100                 
E range min (V)     -1.100              
E range max (V)     0.200               
I Range             Auto                
I Range min         Unset               
I Range max         Unset               
I Range init        Unset               
Bandwidth           5                   

mode	ox/red	error	control changes	time/s	control/V	Ewe/V	<I>/mA	P/W
2	1	0	0	1.449999963369919E-001	-9.9912035E-001	-9.9929309E-001	-1.143542442321777E+000	1.1427341E-003
2	1	0	1	3.977999899507267E-001	-9.9659473E-001	-9.9669141E-001	-1.157065686310258E+000	1.1532374E-003
2	1	0	0	8.983999773045070E-001	-9.9158841E-001	-9.9168849E-001	-1.097375809113942E+000	1.0882550E-003
2	1	0	1	1.398999964658287E+000	-9.8658270E-001	-9.8669177E-001	-9.474610736671840E-001	9.3485205E-004
2	1	0	1	1.899799952007015E+000	-9.8157448E-001	-9.8168653E-001	-7.846198210358759E-001	7.7025068E-004
2	1	0	0	2.400399939360796E+000	-9.7656864E-001	-9.7665119E-001	-6.483417387887886E-001	6.3320372E-004
2	1	0	1	2.900999926714576E+000	-9.7156250E-001	-9.7164458E-001	-5.460130400206662E-001	5.3053058E-004
2	1	0	0	3.419099913626269E+000	-9.6638161E-001	-9.6644449E-001	-4.659210606230451E-001	4.5028684E-004
2	1	0	0	3.937199900537962E+000	-9.6120054E-001	-9.6123713E-001	-4.011266476978155E-001	3.8557782E-004
2	1	0	1	4.437799887891742E+000	-9.5619440E-001	-9.5621830E-001	-3.515421668845660E-001	3.3615105E-004
2	1	0	0	4.938499875242997E+000	-9.5118755E-001	-9.5124108E-001	-3.083377698025274E-001	2.9330354E-004
2	1	0	0	5.439199862594251E+000	-9.4618034E-001	-9.4623405E-001	-2.711977906384253E-001	2.5661659E-004
2	1	0	1	5.939799849948031E+000	-9.4117457E-001	-9.4122988E-001	-2.383330645845598E-001	2.2432620E-004
2	1	0	0	6.440399837301811E+000	-9.3616849E-001	-9.3623167E-001	-2.079689338074767E-001	1.9470710E-004
2	1	0	1	6.940999824655592E+000	-9.3116266E-001	-9.3122137E-001	-1.800372082109449E-001	1.6765449E-004
2	1	0	0	7.441599812009372E+000	-9.2615646E-001	-9.2621613E-001	-1.542806864527093E-001	1.4289726E-004
2	1	0	1	7.942199799363152E+000	-9.2115062E-001	-9.2118001E-001	-1.296543729695996E-001	1.1943502E-004
2	1	0	0	8.442799786716932E+000	-9.1614443E-001	-9.1618764E-001	-1.062940254988078E-001	9.7385273E-005
2	1	0	1	8.943399774070713E+000	-9.1113865E-001	-9.1119504E-001	-8.395508699427545E-002	7.6499462E-005
2	1	0	0	9.444099761421967E+000	-9.0613133E-001	-9.0618706E-001	-6.251522919257022E-002	5.6650493E-005
2	1	0	0	9.962299748331134E+000	-9.0094966E-001	-9.0097910E-001	-4.107767547229924E-002	3.7010126E-005
2	1	0	0	1.048039973524283E+001	-8.9576834E-001	-8.9580673E-001	-2.013535602960100E-002	1.8037388E-005
2	1	0	1	1.101609972170991E+001	-8.9041156E-001	-8.9045328E-001	6.948130982535709E-004	6.1869861E-007
2	1	0	1	1.155179970817699E+001	-8.8505435E-001	-8.8508821E-001	2.127342796034587E-002	1.8828860E-005
2	1	0	0	1.205239969553077E+001	-8.8004857E-001	-8.8007152E-001	3.997677471847827E-002	3.5182420E-005
2	1	0	1	1.255299968288455E+001	-8.7504238E-001	-8.7508774E-001	5.815538155290478E-002	5.0891060E-005
2	1	0	0	1.305359967023833E+001	-8.7003660E-001	-8.7010241E-001	7.631168014048595E-002	6.6398978E-005
2	1	0	1	1.357169965715002E+001	-8.6485517E-001	-8.6491370E-001	9.495409595296592E-002	8.2127095E-005
2	1	0	1	1.408979964406171E+001	-8.5967445E-001	-8.5974056E-001	1.131925116288357E-001	9.7316195E-005
2	1	0	1	1.459059963141044E+001	-8.5466635E-001	-8.5472167E-001	1.302093074146780E-001	1.1129271E-004
2	1	0	0	1.509119961876422E+001	-8.4966040E-001	-8.4971744E-001	1.472982817226174E-001	1.2516193E-004
2	1	0	1	1.559179960611800E+001	-8.4465438E-001	-8.4470034E-001	1.644216970135726E-001	1.3888706E-004
2	1	0	0	1.609239959347178E+001	-8.3964825E-001	-8.3968365E-001	1.812177238553825E-001	1.5216556E-004
2	1	0	1	1.659299958082556E+001	-8.3464235E-001	-8.3471268E-001	1.970737476502467E-001	1.6449996E-004
2	1	0	0	1.709359956817934E+001	-8.2963616E-001	-8.2969278E-001	2.134103322758731E-001	1.7706501E-004
2	1	0	1	1.759419955553312E+001	-8.2463044E-001	-8.2469332E-001	2.295918141337390E-001	1.8934284E-004
2	1	0	0	1.809479954288690E+001	-8.1962425E-001	-8.1969488E-001	2.449359527536994E-001	2.0077275E-004
2	1	0	1	1.859539953024068E+001	-8.1461847E-001	-8.1468117E-001	2.608508429025114E-001	2.1251028E-004
2	1	0	1	1.909619951758941E+001	-8.0961031E-001	-8.0968088E-001	2.762052976136822E-001	2.2363816E-004
2	1	0	0	1.959679950494319E+001	-8.0460453E-001	-8.0465114E-001	2.914989884472573E-001	2.3455499E-004
2	1	0	1	2.009739949229697E+001	-7.9959834E-001	-7.9964393E-001	3.065531438406639E-001	2.4513336E-004
2	1	0	0	2.059799947965075E+001	-7.9459244E-001	-7.9464841E-001	3.216571270964401E-001	2.5560433E-004
2	1	0	1	2.109859946700453E+001	-7.8958625E-001	-7.8963125E-001	3.363455046641990E-001	2.6558893E-004
2	1	0	0	2.159919945435831E+001	-7.8458047E-001	-7.8462094E-001	3.508999103980526E-001	2.7532343E-004
2	1	0	1	2.209979944171209E+001	-7.7957422E-001	-7.7962124E-001	3.652001883223455E-001	2.8471783E-004
2	1	0	0	2.260039942906587E+001	-7.7456838E-001	-7.7461475E-001	3.798027877319692E-001	2.9420084E-004
2	1	0	1	2.310109941641713E+001	-7.6956117E-001	-7.6960695E-001	3.947596933124835E-001	3.0380979E-004
2	1	0	1	2.360179940376838E+001	-7.6455432E-001	-7.6460159E-001	4.078364831552967E-001	3.1183241E-004
2	1	0	0	2.410239939112216E+001	-7.5954825E-001	-7.5959027E-001	4.221575833029978E-001	3.2066679E-004
2	1	0	1	2.460299937847594E+001	-7.5454211E-001	-7.5458181E-001	4.348811388306633E-001	3.2815340E-004
2	1	0	0	2.510359936582972E+001	-7.4953628E-001	-7.4957108E-001	4.479005282607860E-001	3.3573329E-004
2	1	0	1	2.560419935318350E+001	-7.4453008E-001	-7.4455851E-001	4.607982838994475E-001	3.4309129E-004
2	1	0	0	2.610479934053728E+001	-7.3952425E-001	-7.3955470E-001	4.748052903871858E-001	3.5114450E-004
2	1	0	1	2.660539932789106E+001	-7.3451805E-001	-7.3454702E-001	4.879914289333507E-001	3.5845264E-004
2	1	0	0	2.710599931524484E+001	-7.2951233E-001	-7.2954392E-001	4.996929490482012E-001	3.6454794E-004
2	1	0	1	2.760669930259610E+001	-7.2450519E-001	-7.2452635E-001	5.111430171002356E-001	3.7033658E-004
2	1	0	1	2.810739928994735E+001	-7.1949834E-001	-7.1951073E-001	5.241241236140279E-001	3.7711294E-004
2	1	0	0	2.860799927730113E+001	-7.1449226E-001	-7.1452355E-001	5.354054054333099E-001	3.8255978E-004
2	1	0	1	2.910859926465491E+001	-7.0948642E-001	-7.0953232E-001	5.473039380291294E-001	3.8832982E-004
2	1	0	0	2.960919925200869E+001	-7.0448017E-001	-7.0452064E-001	5.592555069573404E-001	3.9400705E-004
2	1	0	1	3.010979923936247E+001	-6.9947422E-001	-6.9950926E-001	5.689923853814083E-001	3.9801546E-004
2	1	0	0	3.061039922671625E+001	-6.9446802E-001	-6.9450605E-001	5.808539926620409E-001	4.0340662E-004
2	1	0	1	3.111099921407003E+001	-6.8946218E-001	-6.8949306E-001	5.917001492036862E-001	4.0797316E-004
2	1	0	0	3.161159920142381E+001	-6.8445599E-001	-6.8448818E-001	6.007775246737559E-001	4.1122510E-004
2	1	0	1	3.211229918877507E+001	-6.7944914E-001	-6.7948484E-001	6.128861764525126E-001	4.1644686E-004
2	1	0	1	3.261299917612632E+001	-6.7444205E-001	-6.7447466E-001	6.242779068268991E-001	4.2105964E-004
2	1	0	0	3.311359916348010E+001	-6.6943610E-001	-6.6947347E-001	6.326904263648963E-001	4.2356947E-004
2	1	0	1	3.361419915083388E+001	-6.6443002E-001	-6.6446197E-001	6.429818300773866E-001	4.2723698E-004
2	1	0	0	3.411479913818766E+001	-6.5942395E-001	-6.5945989E-001	6.533523857724086E-001	4.3085968E-004
2	1	0	1	3.461539912554144E+001	-6.5441805E-001	-6.5445983E-001	6.614742273407013E-001	4.3290830E-004
2	1	0	0	3.511599911289522E+001	-6.4941198E-001	-6.4946353E-001	6.715725559758639E-001	4.3616188E-004
2	1	0	1	3.561659910024900E+001	-6.4440608E-001	-6.4445090E-001	6.794843097199745E-001	4.3789428E-004
2	1	0	0	3.611719908760278E+001	-6.3940001E-001	-6.3944340E-001	6.879843827285494E-001	4.3992707E-004
2	1	0	0	3.661799907495151E+001	-6.3439214E-001	-6.3446265E-001	6.981207551723578E-001	4.4293154E-004
2	1	0	1	3.711859906230529E+001	-6.2938607E-001	-6.2945795E-001	7.059918545758057E-001	4.4439218E-004
2	1	0	0	3.761919904965907E+001	-6.2437999E-001	-6.2444705E-001	7.134822833265044E-001	4.4553191E-004
2	1	0	1	3.811979903701285E+001	-6.1937392E-001	-6.1944097E-001	7.220424250716171E-001	4.4726266E-004
2	1	0	0	3.862039902436663E+001	-6.1436802E-001	-6.1444545E-001	7.300345750260888E-001	4.4856642E-004
2	1	0	1	3.912099901172041E+001	-6.0936189E-001	-6.0942656E-001	7.384504138662980E-001	4.5003131E-004
2	1	0	0	3.962159899907419E+001	-6.0435593E-001	-6.0441428E-001	7.451827690596851E-001	4.5039912E-004
2	1	0	1	4.012219898642797E+001	-5.9934986E-001	-5.9941638E-001	7.526338513036119E-001	4.5114107E-004
2	1	0	0	4.062289897377923E+001	-5.9434295E-001	-5.9441340E-001	7.612628785241853E-001	4.5250484E-004
2	1	0	0	4.112359896113048E+001	-5.8933574E-001	-5.8940107E-001	7.682262697274527E-001	4.5279338E-004
2	1	0	1	4.162419894848426E+001	-5.8432990E-001	-5.8438605E-001	7.736393404208446E-001	4.5210402E-004
2	1	0	0	4.212479893583804E+001	-5.7932377E-001	-5.7936770E-001	7.811286826935735E-001	4.5256072E-004
2	1	0	1	4.262539892319182E+001	-5.7431775E-001	-5.7438761E-001	7.865190729028093E-001	4.5176680E-004
2	1	0	0	4.312599891054560E+001	-5.6931174E-001	-5.6936955E-001	7.942944113005792E-001	4.5224704E-004
2	1	0	1	4.362659889789938E+001	-5.6430566E-001	-5.6435394E-001	8.014700932825054E-001	4.5231282E-004
2	1	0	0	4.412719888525316E+001	-5.5929983E-001	-5.5936754E-001	8.061604069977353E-001	4.5093996E-004
2	1	0	1	4.462779887260695E+001	-5.5429375E-001	-5.5437118E-001	8.123641334327232E-001	4.5035128E-004
2	1	0	0	4.512849885995820E+001	-5.4928678E-001	-5.4934025E-001	8.186461491589867E-001	4.4971527E-004
2	1	0	0	4.562919884730945E+001	-5.4427981E-001	-5.4433852E-001	8.218124159174476E-001	4.4734415E-004
2	1	0	1	4.612979883466323E+001	-5.3927380E-001	-5.3933722E-001	8.269229290779148E-001	4.4599030E-004
2	1	0	0	4.663039882201701E+001	-5.3426772E-001	-5.3432930E-001	8.337162548787020E-001	4.4547903E-004
2	1	0	1	4.713099880937079E+001	-5.2926171E-001	-5.2932358E-001	8.389056600015561E-001	4.4405254E-004
2	1	0	0	4.763159879672457E+001	-5.2425569E-001	-5.2432346E-001	8.423247023096394E-001	4.4165060E-004
2	1	0	1	4.813219878407835E+001	-5.1924968E-001	-5.1931429E-001	8.490208228177369E-001	4.4090865E-004
2	1	0	0	4.863279877143214E+001	-5.1424366E-001	-5.1431262E-001	8.541045456783500E-001	4.3927674E-004
2	1	0	1	4.913339875878592E+001	-5.0923771E-001	-5.0929606E-001	8.577872259669448E-001	4.3686765E-004
2	1	0	1	4.963419874613464E+001	-5.0422972E-001	-5.0428605E-001	8.628663334503770E-001	4.3513146E-004
2	1	0	0	5.013479873348842E+001	-4.9922362E-001	-4.9928483E-001	8.663129810675403E-001	4.3253694E-004
2	1	0	1	5.063539872084220E+001	-4.9421757E-001	-4.9428377E-001	8.701696501711673E-001	4.3011073E-004
2	1	0	0	5.113599870819598E+001	-4.8921153E-001	-4.8925307E-001	8.757117690210983E-001	4.2844468E-004
2	1	0	1	5.163659869554976E+001	-4.8420545E-001	-4.8426062E-001	8.818677096605354E-001	4.2705380E-004
2	1	0	0	5.213719868290355E+001	-4.7919953E-001	-4.7923321E-001	8.826643804564749E-001	4.2300209E-004
2	1	0	1	5.263779867025733E+001	-4.7419354E-001	-4.7421569E-001	8.861855952339583E-001	4.2024310E-004
2	1	0	0	5.313839865761111E+001	-4.6918753E-001	-4.6923122E-001	8.920271293370270E-001	4.1856698E-004
2	1	0	1	5.363899864496489E+001	-4.6418151E-001	-4.6422154E-001	8.944497072471382E-001	4.1522281E-004
2	1	0	1	5.413979863231361E+001	-4.5917359E-001	-4.5921630E-001	8.980075829277618E-001	4.1237971E-004
2	1	0	0	5.464039861966739E+001	-4.5416760E-001	-4.5420805E-001	9.019784904243382E-001	4.0968589E-004
2	1	0	1	5.514099860702117E+001	-4.4916162E-001	-4.4918987E-001	9.060706951605937E-001	4.0699777E-004
2	1	0	0	5.564159859437495E+001	-4.4415557E-001	-4.4419602E-001	9.080607033835690E-001	4.0335694E-004
2	1	0	1	5.614219858172874E+001	-4.3914956E-001	-4.3918964E-001	9.130765476505029E-001	4.0101376E-004
2	1	0	0	5.664279856908252E+001	-4.3414360E-001	-4.3416831E-001	9.153023478235216E-001	3.9739528E-004
2	1	0	1	5.714339855643630E+001	-4.2913759E-001	-4.2916611E-001	9.164122600865259E-001	3.9329307E-004
2	1	0	0	5.764399854379008E+001	-4.2413154E-001	-4.2416772E-001	9.198957557123899E-001	3.9019008E-004
2	1	0	1	5.814469853114133E+001	-4.1912448E-001	-4.1915753E-001	9.239149651613818E-001	3.8726593E-004
2	1	0	1	5.864539851849258E+001	-4.1411749E-001	-4.1415554E-001	9.271407909781271E-001	3.8398048E-004
2	1	0	0	5.914599850584636E+001	-4.0911147E-001	-4.0913236E-001	9.289142830206103E-001	3.8004891E-004
2	1	0	1	5.964659849320014E+001	-4.0410548E-001	-4.0414554E-001	9.317543803767876E-001	3.7656436E-004
2	1	0	0	6.014719848055393E+001	-3.9909938E-001	-3.9914000E-001	9.319690823058089E-001	3.7198613E-004
2	1	0	1	6.064779846790771E+001	-3.9409339E-001	-3.9413461E-001	9.358956270754994E-001	3.6886884E-004
2	1	0	0	6.114839845526149E+001	-3.8908738E-001	-3.8913122E-001	9.410199035224878E-001	3.6618023E-004
2	1	0	1	6.164899844261527E+001	-3.8408139E-001	-3.8411298E-001	9.417746604812196E-001	3.6174787E-004
2	1	0	0	6.214959842996905E+001	-3.7907541E-001	-3.7910438E-001	9.426294270674429E-001	3.5735493E-004
2	1	0	1	6.265029841732030E+001	-3.7406847E-001	-3.7409332E-001	9.463378124538329E-001	3.5401864E-004
2	1	0	1	6.315099840467155E+001	-3.6906144E-001	-3.6910132E-001	9.478478849594083E-001	3.4985191E-004
2	1	0	0	6.365159839202533E+001	-3.6405545E-001	-3.6408988E-001	9.477467175826053E-001	3.4506500E-004
2	1	0	1	6.415219837937912E+001	-3.5904947E-001	-3.5908982E-001	9.497421746571266E-001	3.4104276E-004
2	1	0	0	6.465279836673290E+001	-3.5404342E-001	-3.5406992E-001	9.545511179632697E-001	3.3797784E-004
2	1	0	1	6.515339835408668E+001	-3.4903741E-001	-3.4909737E-001	9.561547733295139E-001	3.3379110E-004
2	1	0	0	6.565399834144046E+001	-3.4403145E-001	-3.4407750E-001	9.562314719985205E-001	3.2901773E-004
2	1	0	1	6.615459832879424E+001	-3.3902535E-001	-3.3906034E-001	9.561927696410510E-001	3.2420704E-004
2	1	0	0	6.665519831614802E+001	-3.3401939E-001	-3.3404323E-001	9.570822154262073E-001	3.1970683E-004
2	1	0	0	6.715599830349674E+001	-3.2901141E-001	-3.2901525E-001	9.613875258191129E-001	3.1631117E-004
2	1	0	1	6.765659829085052E+001	-3.2400540E-001	-3.2404628E-001	9.645090253110471E-001	3.1254557E-004
2	1	0	0	6.815719827820431E+001	-3.1899932E-001	-3.1904805E-001	9.663642078371844E-001	3.0831661E-004
2	1	0	1	6.865779826555809E+001	-3.1399328E-001	-3.1402960E-001	9.686193598077564E-001	3.0417516E-004
2	1	0	0	6.915839825291187E+001	-3.0898726E-001	-3.0902165E-001	9.685827093656894E-001	2.9931302E-004
2	1	0	1	6.965899824026565E+001	-3.0398124E-001	-3.0402461E-001	9.699738493704180E-001	2.9489593E-004
2	1	0	0	7.015959822761943E+001	-2.9897526E-001	-2.9902980E-001	9.739656925391156E-001	2.9124477E-004
2	1	0	1	7.066019821497321E+001	-2.9396918E-001	-2.9401579E-001	9.723565142471937E-001	2.8588818E-004
2	1	0	0	7.116089820232446E+001	-2.8896222E-001	-2.8900486E-001	9.733833804931944E-001	2.8131253E-004
2	1	0	0	7.166159818967571E+001	-2.8395525E-001	-2.8399152E-001	9.763886797974539E-001	2.7728610E-004
2	1	0	1	7.216219817702950E+001	-2.7894926E-001	-2.7897903E-001	9.787186505931960E-001	2.7304198E-004
2	1	0	0	7.266279816438328E+001	-2.7394319E-001	-2.7397510E-001	9.782130886177942E-001	2.6800603E-004
2	1	0	1	7.316339815173706E+001	-2.6893720E-001	-2.6897556E-001	9.792345739152444E-001	2.6339016E-004
2	1	0	0	7.366399813909084E+001	-2.6393116E-001	-2.6395923E-001	9.822106148748233E-001	2.5926356E-004
2	1	0	1	7.416459812644462E+001	-2.5892517E-001	-2.5895849E-001	9.815498683514559E-001	2.5418066E-004
2	1	0	0	7.466519811379840E+001	-2.5391915E-001	-2.5394738E-001	9.833866750911806E-001	2.4972847E-004
2	1	0	1	7.516579810115218E+001	-2.4891311E-001	-2.4896003E-001	9.853906025936257E-001	2.4532288E-004
2	1	0	0	7.566649808850343E+001	-2.4390613E-001	-2.4396613E-001	9.848056999659591E-001	2.4025924E-004
2	1	0	0	7.616719807585469E+001	-2.3889917E-001	-2.3895901E-001	9.821506576526211E-001	2.3469375E-004
2	1	0	1	7.666779806320847E+001	-2.3389313E-001	-2.3395391E-001	9.857956013952744E-001	2.3063073E-004
2	1	0	0	7.716839805056225E+001	-2.2888710E-001	-2.2894266E-001	9.887871605970613E-001	2.2637556E-004
2	1	0	1	7.766899803791603E+001	-2.2388111E-001	-2.2392750E-001	9.916496341780698E-001	2.2205763E-004
2	1	0	0	7.816959802526981E+001	-2.1887508E-001	-2.1892609E-001	9.888840792265947E-001	2.1649252E-004
2	1	0	1	7.867019801262359E+001	-2.1386909E-001	-2.1392363E-001	9.888482074585703E-001	2.1153800E-004
2	1	0	0	7.917079799997737E+001	-2.0886309E-001	-2.0893247E-001	9.916043740381815E-001	2.0717835E-004
2	1	0	1	7.967139798733115E+001	-2.0385706E-001	-2.0393391E-001	9.946613035032570E-001	2.0284517E-004
2	1	0	0	8.017209797468240E+001	-1.9885011E-001	-1.9890310E-001	9.939065783392476E-001	1.9769110E-004
2	1	0	0	8.067279796203366E+001	-1.9384307E-001	-1.9390684E-001	9.906917736607972E-001	1.9210191E-004
2	1	0	1	8.117339794938744E+001	-1.8883704E-001	-1.8891434E-001	9.913300646101177E-001	1.8727647E-004
2	1	0	0	8.167399793674122E+001	-1.8383104E-001	-1.8389785E-001	9.945243421578276E-001	1.8289089E-004
2	1	0	1	8.217459792409500E+001	-1.7882502E-001	-1.7887467E-001	9.950125137871577E-001	1.7798254E-004
2	1	0	0	8.267519791144878E+001	-1.7381901E-001	-1.7387053E-001	9.924886842546359E-001	1.7256454E-004
2	1	0	1	8.317579789880256E+001	-1.6881301E-001	-1.6885604E-001	9.941820180454304E-001	1.6787364E-004
2	1	0	0	8.367639788615634E+001	-1.6380702E-001	-1.6384310E-001	9.971347453904741E-001	1.6337364E-004
2	1	0	1	8.417699787351012E+001	-1.5880100E-001	-1.5884346E-001	9.984458761394208E-001	1.5859659E-004
2	1	0	1	8.467779786085885E+001	-1.5379302E-001	-1.5380594E-001	9.973157330187679E-001	1.5339309E-004
2	1	0	0	8.517839784821263E+001	-1.4878699E-001	-1.4882134E-001	9.994782399469653E-001	1.4874370E-004
2	1	0	1	8.567899783556641E+001	-1.4378095E-001	-1.4381668E-001	9.985625692756890E-001	1.4360996E-004
2	1	0	0	8.617959782292019E+001	-1.3877495E-001	-1.3878749E-001	9.990201918017920E-001	1.3865151E-004
2	1	0	1	8.668019781027397E+001	-1.3376895E-001	-1.3376983E-001	9.998540180081861E-001	1.3375029E-004
2	1	0	0	8.718079779762775E+001	-1.2876289E-001	-1.2876886E-001	1.000286105189339E+000	1.2880570E-004
2	1	0	1	8.768139778498153E+001	-1.2375686E-001	-1.2375819E-001	1.002712116926499E+000	1.2409383E-004
2	1	0	0	8.818199777233531E+001	-1.1875083E-001	-1.1875957E-001	1.001296169308063E+000	1.1891351E-004
2	1	0	1	8.868269775968656E+001	-1.1374385E-001	-1.1375573E-001	1.001996747595546E+000	1.1398287E-004
2	1	0	1	8.918339774703782E+001	-1.0873691E-001	-1.0875916E-001	1.004178873154920E+000	1.0921366E-004
2	1	0	0	8.968399773439160E+001	-1.0373087E-001	-1.0374852E-001	1.006271979736251E+000	1.0439922E-004
2	1	0	1	9.018459772174538E+001	-9.8724857E-002	-9.8726280E-002	1.003630847733373E+000	9.9084740E-005
2	1	0	0	9.068519770909916E+001	-9.3718834E-002	-9.3722172E-002	1.002107746722635E+000	9.3919713E-005
2	1	0	1	9.118579769645294E+001	-8.8712804E-002	-8.8744447E-002	1.003798588318233E+000	8.9081550E-005
2	1	0	0	9.168639768380672E+001	-8.3706811E-002	-8.3726838E-002	1.003658879873097E+000	8.4033185E-005
2	1	0	1	9.218699767116050E+001	-7.8700818E-002	-7.8716427E-002	1.003859987881535E+000	7.9020268E-005
2	1	0	0	9.268759765851428E+001	-7.3694743E-002	-7.3714703E-002	1.006795517437458E+000	7.4215634E-005
2	1	0	1	9.318829764586553E+001	-6.8687782E-002	-6.8710759E-002	1.005406256392259E+000	6.9082227E-005
2	1	0	1	9.368899763321679E+001	-6.3680813E-002	-6.3703910E-002	1.003562957019829E+000	6.3930886E-005
2	1	0	0	9.418959762057057E+001	-5.8674775E-002	-5.8702152E-002	1.006538292199469E+000	5.9085964E-005
2	1	0	1	9.469019760792435E+001	-5.3668763E-002	-5.3691749E-002	1.009387232217779E+000	5.4195767E-005
2	1	0	0	9.519079759527813E+001	-4.8662748E-002	-4.8694544E-002	1.006423852671386E+000	4.9007351E-005
2	1	0	1	9.569139758263191E+001	-4.3656714E-002	-4.3684553E-002	1.004764675869273E+000	4.3892695E-005
2	1	0	0	9.619199756998569E+001	-3.8650710E-002	-3.8669106E-002	1.004874609470765E+000	3.8857601E-005
2	1	0	1	9.669259755733947E+001	-3.3644713E-002	-3.3657826E-002	1.007904764640388E+000	3.3923883E-005
2	1	0	0	9.719319754469325E+001	-2.8638715E-002	-2.8656503E-002	1.010397361402777E+000	2.8954455E-005
2	1	0	1	9.769389753204450E+001	-2.3631711E-002	-2.3649329E-002	1.008661573261879E+000	2.3854169E-005
2	1	0	1	9.819459751939576E+001	-1.8624725E-002	-1.8644636E-002	1.008310084629941E+000	1.8799576E-005
2	1	0	0	9.869519750674954E+001	-1.3618704E-002	-1.3656973E-002	1.007892516850065E+000	1.3764761E-005
2	1	0	1	9.919579749410332E+001	-8.6126672E-003	-8.6551104E-003	1.008236268980250E+000	8.7263961E-006
2	1	0	0	9.969639748145710E+001	-3.6066703E-003	-3.6507628E-003	1.011136798624282E+000	3.6914207E-006
2	1	0	1	1.001969974688109E+002	1.3993231E-003	1.3724357E-003	1.010892322338552E+000	1.3873847E-006
2	1	0	0	1.006975974561647E+002	6.4053396E-003	6.3717095E-003	1.008933144178066E+000	6.4286287E-006
2	1	0	1	1.011981974435184E+002	1.1411333E-002	1.1374943E-002	1.009193255476120E+000	1.1479516E-005
2	1	0	0	1.016987974308722E+002	1.6417328E-002	1.6374804E-002	1.010383238793261E+000	1.6544827E-005
2	1	0	0	1.021995974182209E+002	2.1425279E-002	2.1400211E-002	1.009324400131142E+000	2.1599755E-005
2	1	0	1	1.027001974055747E+002	2.6431259E-002	2.6402466E-002	1.009044783675286E+000	2.6641270E-005
2	1	0	0	1.032007973929285E+002	3.1437237E-002	3.1419247E-002	1.007889498827399E+000	3.1667128E-005
2	1	0	1	1.037013973802823E+002	3.6443252E-002	3.6429349E-002	1.009831123486137E+000	3.6787489E-005
2	1	0	0	1.042019973676361E+002	4.1449241E-002	4.1428968E-002	1.012855254304426E+000	4.1961550E-005
2	1	0	1	1.047025973549898E+002	4.6455253E-002	4.6446059E-002	1.009669582966122E+000	4.6895173E-005
2	1	0	0	1.052031973423436E+002	5.1461257E-002	5.1435761E-002	1.011463862382486E+000	5.2025414E-005
2	1	0	1	1.057037973296974E+002	5.6467231E-002	5.6449894E-002	1.012378192974008E+000	5.7148642E-005
2	1	0	0	1.062044973170487E+002	6.1474189E-002	6.1456725E-002	1.011003982357817E+000	6.2132996E-005
2	1	0	0	1.067051973043999E+002	6.6481180E-002	6.6461153E-002	1.012923934224848E+000	6.7320092E-005
2	1	0	1	1.072057972917537E+002	7.1487144E-002	7.1451426E-002	1.009964722597793E+000	7.2163421E-005
2	1	0	0	1.077063972791075E+002	7.6493181E-002	7.6479964E-002	1.013060227806781E+000	7.7478813E-005
2	1	0	1	1.082069972664613E+002	8.1499159E-002	8.1492677E-002	1.012653763089389E+000	8.2523868E-005
2	1	0	0	1.087075972538150E+002	8.6505190E-002	8.6483710E-002	1.012761738660661E+000	8.7587388E-005
2	1	0	1	1.092081972411688E+002	9.1511168E-002	9.1484845E-002	1.012377957722590E+000	9.2617243E-005
2	1	0	0	1.097087972285226E+002	9.6517153E-002	9.6497491E-002	1.011402122121426E+000	9.7597767E-005
2	1	0	1	1.100066972209970E+002	9.9496074E-002	9.9478424E-002	1.012949342327725E+000	1.0076661E-004
2	1	0	0	1.100545972197870E+002	9.9997252E-002	1.0007059E-001	1.013701421873909E+000	1.0144170E-004