EC-Lab ASCII FILE
Nb header lines : 55                          

I-V Characterization

Run on channel : 1 (SN 6514)
User : 
CE vs. WE compliance from -10 V to 10 V
Electrode connection : standard
Ewe ctrl range : min = -1.10 V, max = 0.20 V
Safety Limits :
	Do not start on E overload
Acquisition started on : 06/15/2016 19:30:33
Saved on :
	File : B125-G54-UN-G-D1GB-C11 BW 100mVs dark_C01.mpr
	Directory : E:\EC-Lab measurements\B125-G54-UN-G-D1GB\
	Host : 10.0.2.15
Device : VSP (SN 0295)
Address : USB
EC-Lab for windows v11.01 (software)
Internet server v11.00 (firmware)
Command interpretor v11.00 (firmware)
Electrode material : 
Initial state : 
Electrolyte : 
Comments : 
Electrode surface area : 0.001 cm²
Characteristic mass : 0.001 g
Equivalent Weight : 0.000 g/eq.
Density : 0.000 g/cm3
tR (h:m:s)          0:00:0.0000         
dER/dt (mV/h)       0.0                 
dER (mV)            0                   
dtR (s)             0.0000              
dE/dt               100.000             
dE/dt unit          mV/s                
Ei (V)              -1.000              
vs.                 Ref                 
EL (V)              0.100               
vs.                 Ref                 
record              <I>                 
dI                  0.000               
unit dI             µA                  
tI (s)              0.1000              
step percent        100                 
N                   100                 
E range min (V)     -1.100              
E range max (V)     0.200               
I Range             Auto                
I Range min         Unset               
I Range max         Unset               
I Range init        Unset               
Bandwidth           5                   

mode	ox/red	error	control changes	time/s	control/V	Ewe/V	<I>/mA	P/W
2	1	0	1	1.103999972110614E-001	-9.9401397E-001	-9.9400294E-001	-8.522989451885223E-001	8.4718765E-004
2	1	0	0	1.357999965694034E-001	-9.9148411E-001	-9.9151587E-001	-8.719288103165889E-001	8.6453126E-004
2	1	0	0	1.857999953062972E-001	-9.8648173E-001	-9.8652244E-001	-8.960268212412039E-001	8.8395056E-004
2	1	0	1	2.358999940406648E-001	-9.8147583E-001	-9.8151010E-001	-9.210870084069871E-001	9.0405619E-004
2	1	0	1	2.859999927750323E-001	-9.7646338E-001	-9.7650570E-001	-9.230529616623495E-001	9.0136647E-004
2	1	0	1	3.359999915119261E-001	-9.7146332E-001	-9.7149599E-001	-9.346233233587178E-001	9.0798282E-004
2	1	0	1	3.859999902488198E-001	-9.6646512E-001	-9.6650523E-001	-9.320536085672835E-001	9.0083468E-004
2	1	0	0	4.361999889806611E-001	-9.6144265E-001	-9.6147120E-001	-9.260916268519885E-001	8.9041045E-004
2	1	0	0	4.861999877175549E-001	-9.5644403E-001	-9.5646399E-001	-9.200837227505669E-001	8.8002696E-004
2	1	0	0	5.361999864544487E-001	-9.5144433E-001	-9.5148534E-001	-9.138778788572566E-001	8.6954143E-004
2	1	0	1	5.862999851888162E-001	-9.4643182E-001	-9.4648457E-001	-9.052911708621405E-001	8.5684413E-004
2	1	0	1	6.363999839231838E-001	-9.4142586E-001	-9.4147450E-001	-8.972680864624607E-001	8.4475504E-004
2	1	0	1	6.863999826600775E-001	-9.3642360E-001	-9.3646640E-001	-8.882220630619670E-001	8.3179009E-004
2	1	0	0	7.364999813944451E-001	-9.3141323E-001	-9.3146503E-001	-8.782853942462339E-001	8.1809214E-004
2	1	0	0	7.865999801288126E-001	-9.2640460E-001	-9.2646289E-001	-8.679400934325621E-001	8.0411427E-004
2	1	0	0	8.365999788657064E-001	-9.2140245E-001	-9.2146009E-001	-8.575898258213162E-001	7.9023477E-004
2	1	0	1	8.866999776000739E-001	-9.1639447E-001	-9.1645235E-001	-8.485699584761051E-001	7.7767391E-004
2	1	0	1	9.367999763344415E-001	-9.1138405E-001	-9.1142410E-001	-8.364963748977878E-001	7.6240295E-004
2	1	0	1	9.867999750713352E-001	-9.0638232E-001	-9.0642333E-001	-8.252096407037790E-001	7.4798928E-004
2	1	0	1	1.036799973808229E+000	-9.0138543E-001	-9.0143788E-001	-8.122902770128508E-001	7.3222921E-004
2	1	0	0	1.086999972540070E+000	-8.9636302E-001	-8.9640832E-001	-8.004381958465885E-001	7.1751943E-004
2	1	0	0	1.136999971276964E+000	-8.9136302E-001	-8.9141351E-001	-7.890074632965316E-001	7.0333190E-004
2	1	0	0	1.186999970013858E+000	-8.8636494E-001	-8.8640910E-001	-7.762176143396573E-001	6.8804633E-004
2	1	0	1	1.237199968745699E+000	-8.8134217E-001	-8.8138235E-001	-7.635668476871871E-001	6.7299436E-004
2	1	0	1	1.287199967482593E+000	-8.7634486E-001	-8.7639886E-001	-7.508662713895458E-001	6.5805833E-004
2	1	0	1	1.337199966219487E+000	-8.7134379E-001	-8.7140030E-001	-7.377519786156874E-001	6.4287730E-004
2	1	0	0	1.387299964953854E+000	-8.6633211E-001	-8.6640698E-001	-7.267348472378856E-001	6.2964816E-004
2	1	0	0	1.437399963688222E+000	-8.6132509E-001	-8.6137670E-001	-7.153860958673477E-001	6.1621692E-004
2	1	0	0	1.487399962425116E+000	-8.5632306E-001	-8.5637236E-001	-7.019188003013532E-001	6.0110388E-004
2	1	0	1	1.537499961159483E+000	-8.5131323E-001	-8.5138607E-001	-6.908428435265357E-001	5.8817398E-004
2	1	0	1	1.587599959893851E+000	-8.4630477E-001	-8.4635574E-001	-6.770769670794632E-001	5.7304796E-004
2	1	0	1	1.637599958630744E+000	-8.4130228E-001	-8.4135163E-001	-6.647567509267205E-001	5.5929419E-004
2	1	0	0	1.687699957365112E+000	-8.3629465E-001	-8.3636183E-001	-6.524411734013089E-001	5.4567691E-004
2	1	0	0	1.737799956099479E+000	-8.3128345E-001	-8.3134544E-001	-6.419840571436044E-001	5.3371052E-004
2	1	0	0	1.787799954836373E+000	-8.2628196E-001	-8.2635581E-001	-6.292361582823960E-001	5.1997293E-004
2	1	0	0	1.837799953573267E+000	-8.2128513E-001	-8.2134283E-001	-6.156953048893183E-001	5.0569692E-004
2	1	0	1	1.887999952305108E+000	-8.1626278E-001	-8.1631154E-001	-6.050928233598740E-001	4.9394427E-004
2	1	0	1	1.937999951042002E+000	-8.1126356E-001	-8.1132895E-001	-5.929113686164746E-001	4.8104615E-004
2	1	0	1	1.987999949778896E+000	-8.0626434E-001	-8.0633169E-001	-5.826400496392201E-001	4.6980113E-004
2	1	0	0	2.038199948510737E+000	-8.0124211E-001	-8.0130285E-001	-5.699244038195852E-001	4.5668206E-004
2	1	0	0	2.088199947247631E+000	-7.9624444E-001	-7.9630166E-001	-5.577765152760152E-001	4.4415836E-004
2	1	0	0	2.138199945984525E+000	-7.9124361E-001	-7.9128975E-001	-5.467426889547413E-001	4.3263187E-004
2	1	0	1	2.188299944718892E+000	-7.8623211E-001	-7.8627223E-001	-5.358498652935970E-001	4.2132387E-004
2	1	0	1	2.238399943453260E+000	-7.8122526E-001	-7.8126812E-001	-5.238670797271210E-001	4.0928065E-004
2	1	0	1	2.288399942190154E+000	-7.7622271E-001	-7.7626485E-001	-5.193097683134997E-001	4.0312193E-004
2	1	0	0	2.338499940924521E+000	-7.7121341E-001	-7.7125150E-001	-4.962648580117204E-001	3.8274503E-004
2	1	0	0	2.388599939658889E+000	-7.6620382E-001	-7.6624721E-001	-4.847473234957764E-001	3.7143630E-004
2	1	0	0	2.438599938395782E+000	-7.6120192E-001	-7.6123995E-001	-4.734788057312924E-001	3.6043097E-004
2	1	0	1	2.488699937130150E+000	-7.5619459E-001	-7.5623375E-001	-4.628722872157658E-001	3.5003966E-004
2	1	0	1	2.538799935864517E+000	-7.5118327E-001	-7.5121737E-001	-4.523103123672136E-001	3.3978335E-004
2	1	0	1	2.588799934601411E+000	-7.4618256E-001	-7.4622369E-001	-4.413669505927933E-001	3.2935847E-004
2	1	0	1	2.638799933338305E+000	-7.4118471E-001	-7.4121004E-001	-4.304983596439760E-001	3.1908971E-004
2	1	0	0	2.688999932070146E+000	-7.3616242E-001	-7.3618639E-001	-4.201395150101197E-001	3.0930099E-004
2	1	0	0	2.738999930807040E+000	-7.3116344E-001	-7.3119104E-001	-4.099681986787120E-001	2.9976506E-004
2	1	0	0	2.788999929543934E+000	-7.2616386E-001	-7.2618854E-001	-4.000155806734735E-001	2.9048673E-004
2	1	0	1	2.839199928275775E+000	-7.2114128E-001	-7.2118652E-001	-3.902489142964898E-001	2.8144225E-004
2	1	0	1	2.889199927012669E+000	-7.1614516E-001	-7.1619809E-001	-3.804621495596221E-001	2.7248627E-004
2	1	0	1	2.939199925749563E+000	-7.1114302E-001	-7.1119273E-001	-3.709691745361652E-001	2.6383059E-004
2	1	0	0	2.989299924483930E+000	-7.0613241E-001	-7.0617002E-001	-3.614166545615269E-001	2.5522162E-004
2	1	0	0	3.039399923218298E+000	-7.0112443E-001	-7.0116061E-001	-3.523341272369240E-001	2.4704280E-004
2	1	0	0	3.089399921955192E+000	-6.9612193E-001	-6.9615376E-001	-3.430175650209124E-001	2.3879297E-004
2	1	0	1	3.139499920689559E+000	-6.9111335E-001	-6.9115317E-001	-3.341275906388521E-001	2.3093334E-004
2	1	0	1	3.189599919423927E+000	-6.8610388E-001	-6.8613094E-001	-3.255052098663800E-001	2.2333920E-004
2	1	0	1	3.239599918160820E+000	-6.8110144E-001	-6.8112338E-001	-3.167320066838819E-001	2.1573357E-004
2	1	0	0	3.289699916895188E+000	-6.7609483E-001	-6.7613727E-001	-3.079611953019038E-001	2.0822404E-004
2	1	0	0	3.339799915629555E+000	-6.7108285E-001	-6.7112267E-001	-2.997945028542439E-001	2.0119888E-004
2	1	0	0	3.389799914366449E+000	-6.6608232E-001	-6.6611856E-001	-2.915588531929281E-001	1.9421277E-004
2	1	0	0	3.439799913103343E+000	-6.6108394E-001	-6.6112560E-001	-2.834323025919505E-001	1.8738436E-004
2	1	0	1	3.489999911835184E+000	-6.5606189E-001	-6.5611786E-001	-2.752366631063448E-001	1.8058770E-004
2	1	0	1	3.539999910572078E+000	-6.5106380E-001	-6.5112209E-001	-2.674736694612083E-001	1.7415802E-004
2	1	0	1	3.589999909308972E+000	-6.4606333E-001	-6.4610153E-001	-2.596915152853452E-001	1.6778709E-004
2	1	0	0	3.640099908043339E+000	-6.4105135E-001	-6.4110184E-001	-2.520689715851354E-001	1.6160189E-004
2	1	0	0	3.690199906777707E+000	-6.3604486E-001	-6.3611776E-001	-2.447819137637968E-001	1.5571012E-004
2	1	0	0	3.740199905514601E+000	-6.3104236E-001	-6.3112020E-001	-2.372994194301956E-001	1.4976446E-004
2	1	0	1	3.790299904248968E+000	-6.2603211E-001	-6.2610281E-001	-2.303064474199699E-001	1.4419551E-004
2	1	0	1	3.840399902983336E+000	-6.2102413E-001	-6.2109298E-001	-2.234416390295522E-001	1.3877804E-004
2	1	0	1	3.890399901720230E+000	-6.1602169E-001	-6.1608768E-001	-2.164880271922915E-001	1.3337561E-004
2	1	0	0	3.940499900454597E+000	-6.1101383E-001	-6.1109632E-001	-2.098420755920380E-001	1.2823372E-004
2	1	0	0	3.990599899188965E+000	-6.0600322E-001	-6.0607344E-001	-2.034042431357648E-001	1.2327790E-004
2	1	0	0	4.040599897925858E+000	-6.0100126E-001	-6.0105914E-001	-1.969895222714328E-001	1.1840235E-004
2	1	0	0	4.090599896662752E+000	-5.9600443E-001	-5.9607041E-001	-1.910135689107317E-001	1.1385754E-004
2	1	0	1	4.140799895394593E+000	-5.9098244E-001	-5.9104073E-001	-1.846890896814544E-001	1.0915878E-004
2	1	0	1	4.190799894131487E+000	-5.8598256E-001	-5.8604562E-001	-1.785007777472178E-001	1.0460960E-004
2	1	0	1	4.240799892868381E+000	-5.8098400E-001	-5.8105141E-001	-1.725584398951161E-001	1.0026532E-004
2	1	0	0	4.290999891600222E+000	-5.7596183E-001	-5.7602364E-001	-1.668166427667139E-001	9.6090327E-005
2	1	0	0	4.340999890337116E+000	-5.7096386E-001	-5.7103038E-001	-1.614414828413069E-001	9.2187991E-005
2	1	0	0	4.390999889074010E+000	-5.6596279E-001	-5.6601906E-001	-1.560732402972680E-001	8.8340428E-005
2	1	0	1	4.441099887808377E+000	-5.6095111E-001	-5.6102318E-001	-1.505784285424032E-001	8.4477986E-005
2	1	0	1	4.491199886542745E+000	-5.5594462E-001	-5.5603164E-001	-1.453799897050159E-001	8.0835875E-005
2	1	0	1	4.541199885279639E+000	-5.5094218E-001	-5.5100602E-001	-1.403458610086505E-001	7.7331417E-005
2	1	0	0	4.591299884014006E+000	-5.4593289E-001	-5.4599273E-001	-1.353136587306862E-001	7.3880277E-005
2	1	0	0	4.641399882748374E+000	-5.4092383E-001	-5.4098082E-001	-1.306547558619893E-001	7.0681715E-005
2	1	0	0	4.691399881485268E+000	-5.3592128E-001	-5.3597438E-001	-1.259023207287893E-001	6.7480418E-005
2	1	0	1	4.741499880219635E+000	-5.3091365E-001	-5.3096861E-001	-1.213066340937059E-001	6.4410015E-005
2	1	0	1	4.791599878954003E+000	-5.2590299E-001	-5.2596289E-001	-1.169754185474248E-001	6.1524726E-005
2	1	0	1	4.841599877690896E+000	-5.2090126E-001	-5.2097058E-001	-1.127874734823573E-001	5.8758957E-005
2	1	0	1	4.891599876427790E+000	-5.1590466E-001	-5.1598203E-001	-1.087006199309652E-001	5.6087567E-005
2	1	0	0	4.941799875159631E+000	-5.1088226E-001	-5.1093692E-001	-1.046224216169234E-001	5.3455457E-005
2	1	0	0	4.991799873896525E+000	-5.0588274E-001	-5.0594544E-001	-1.006838153780213E-001	5.0940518E-005
2	1	0	0	5.041799872633419E+000	-5.0088334E-001	-5.0094080E-001	-9.684788040800596E-002	4.8515056E-005
2	1	0	1	5.091999871365260E+000	-4.9586108E-001	-4.9592665E-001	-9.320917261931827E-002	4.6224912E-005
2	1	0	1	5.141999870102154E+000	-4.9086404E-001	-4.9091554E-001	-8.956787219467688E-002	4.3970260E-005
2	1	0	1	5.191999868839048E+000	-4.8586267E-001	-4.8591661E-001	-8.604492562098764E-002	4.1810657E-005
2	1	0	0	5.242099867573415E+000	-4.8085180E-001	-4.8089489E-001	-8.274971077715054E-002	3.9793915E-005
2	1	0	0	5.292199866307783E+000	-4.7584435E-001	-4.7590402E-001	-7.947397889884161E-002	3.7821985E-005
2	1	0	0	5.342199865044677E+000	-4.7084177E-001	-4.7087994E-001	-7.633732823212913E-002	3.5945715E-005
2	1	0	1	5.392299863779044E+000	-4.6583271E-001	-4.6587184E-001	-7.322257695175172E-002	3.4112338E-005
2	1	0	1	5.442399862513412E+000	-4.6082360E-001	-4.6086049E-001	-7.025984072931135E-002	3.2379983E-005
2	1	0	1	5.492399861250306E+000	-4.5582080E-001	-4.5587453E-001	-6.741189024892491E-002	3.0731364E-005
2	1	0	0	5.542499859984673E+000	-4.5081443E-001	-4.5085186E-001	-6.467849661687697E-002	2.9160421E-005
2	1	0	0	5.592599858719041E+000	-4.4580272E-001	-4.4583941E-001	-6.189674721868021E-002	2.7596008E-005
2	1	0	0	5.642599857455934E+000	-4.4080153E-001	-4.4083136E-001	-5.927560997846548E-002	2.6130549E-005
2	1	0	0	5.692599856192828E+000	-4.3580383E-001	-4.3585423E-001	-5.677049654277339E-002	2.4743660E-005
2	1	0	1	5.742799854924669E+000	-4.3078178E-001	-4.3080676E-001	-5.434696970986508E-002	2.3413042E-005
2	1	0	1	5.792799853661563E+000	-4.2578271E-001	-4.2582536E-001	-5.200294308095632E-002	2.2144171E-005
2	1	0	1	5.842799852398457E+000	-4.2078331E-001	-4.2080489E-001	-4.970712808792155E-002	2.0917003E-005
2	1	0	0	5.892999851130298E+000	-4.1576087E-001	-4.1580340E-001	-4.765971546992342E-002	1.9817071E-005
2	1	0	0	5.957999849488260E+000	-4.0926287E-001	-4.0931350E-001	-4.502855947093226E-002	1.8430797E-005
2	1	0	1	6.023099847843696E+000	-4.0275407E-001	-4.0279776E-001	-4.244636362332829E-002	1.7097300E-005
2	1	0	1	6.073199846578063E+000	-3.9774248E-001	-3.9778584E-001	-4.050976039397095E-002	1.6114209E-005
2	1	0	1	6.123199845314957E+000	-3.9274159E-001	-3.9277613E-001	-3.869112951243468E-002	1.5196953E-005
2	1	0	1	6.173199844051851E+000	-3.8774407E-001	-3.8777661E-001	-3.696531166011063E-002	1.4334283E-005
2	1	0	0	6.223399842783692E+000	-3.8272151E-001	-3.8276258E-001	-3.527781706203062E-002	1.3503029E-005
2	1	0	0	6.273399841520586E+000	-3.7772292E-001	-3.7777185E-001	-3.362034712275291E-002	1.2700821E-005
2	1	0	0	6.323399840257480E+000	-3.7272283E-001	-3.7274787E-001	-3.205371653202504E-002	1.1947955E-005
2	1	0	1	6.373599838989321E+000	-3.6770067E-001	-3.6773947E-001	-3.062181093060912E-002	1.1260849E-005
2	1	0	1	6.423599837726215E+000	-3.6270410E-001	-3.6274466E-001	-2.916591213887532E-002	1.0579779E-005
2	1	0	1	6.473599836463109E+000	-3.5770211E-001	-3.5773492E-001	-2.792354974520461E-002	9.9892286E-006
2	1	0	0	6.523699835197476E+000	-3.5269192E-001	-3.5272571E-001	-2.660208229059660E-002	9.3832386E-006
2	1	0	0	6.573799833931844E+000	-3.4768349E-001	-3.4771845E-001	-2.525111002056235E-002	8.7802764E-006
2	1	0	0	6.623799832668738E+000	-3.4268135E-001	-3.4269977E-001	-2.402844599408227E-002	8.2345432E-006
2	1	0	1	6.673899831403105E+000	-3.3767304E-001	-3.3769214E-001	-2.284348723966409E-002	7.7140658E-006
2	1	0	1	6.723999830137473E+000	-3.3266267E-001	-3.3268273E-001	-2.162438129000976E-002	7.1940581E-006
2	1	0	1	6.773999828874366E+000	-3.2766038E-001	-3.2766831E-001	-2.045462357421812E-002	6.7023320E-006
2	1	0	1	6.823999827611260E+000	-3.2266432E-001	-3.2270694E-001	-1.946008930988612E-002	6.2799058E-006
2	1	0	0	6.874199826343101E+000	-3.1764182E-001	-3.1767803E-001	-1.853658688595411E-002	5.8886667E-006
2	1	0	0	6.924199825079995E+000	-3.1264186E-001	-3.1268892E-001	-1.755107737357477E-002	5.4880275E-006
2	1	0	0	6.974199823816889E+000	-3.0764320E-001	-3.0768535E-001	-1.653754947022679E-002	5.0883618E-006
2	1	0	1	7.024399822548730E+000	-3.0262110E-001	-3.0266547E-001	-1.563764499085502E-002	4.7329754E-006
2	1	0	1	7.074399821285624E+000	-2.9762298E-001	-2.9765773E-001	-1.481948660625898E-002	4.4111348E-006
2	1	0	1	7.124399820022518E+000	-2.9262272E-001	-2.9265273E-001	-1.405224701303698E-002	4.1124285E-006
2	1	0	0	7.174499818756885E+000	-2.8761077E-001	-2.8764236E-001	-1.330783349790587E-002	3.8278968E-006
2	1	0	0	7.224599817491253E+000	-2.8260395E-001	-2.8264695E-001	-1.260494154225893E-002	3.5627484E-006
2	1	0	0	7.274599816228147E+000	-2.7760178E-001	-2.7763924E-001	-1.191649566721562E-002	3.3084868E-006
2	1	0	1	7.324699814962514E+000	-2.7259207E-001	-2.7261588E-001	-1.129241633548464E-002	3.0784920E-006
2	1	0	1	7.374799813696882E+000	-2.6758313E-001	-2.6762289E-001	-1.067225853029710E-002	2.8561406E-006
2	1	0	1	7.424799812433776E+000	-2.6258081E-001	-2.6261628E-001	-1.008173830845283E-002	2.6476287E-006
2	1	0	0	7.474899811168143E+000	-2.5757334E-001	-2.5758970E-001	-9.512897679082380E-003	2.4504245E-006
2	1	0	0	7.524999809902511E+000	-2.5256225E-001	-2.5259721E-001	-8.999908438997027E-003	2.2733518E-006
2	1	0	0	7.574999808639404E+000	-2.4756090E-001	-2.4760012E-001	-8.535649909686110E-003	2.1134281E-006
2	1	0	0	7.624999807376298E+000	-2.4256386E-001	-2.4263312E-001	-8.037416447675347E-003	1.9501433E-006
2	1	0	1	7.675199806108139E+000	-2.3754144E-001	-2.3759167E-001	-7.599825204835833E-003	1.8056552E-006
2	1	0	1	7.725199804845033E+000	-2.3254187E-001	-2.3259553E-001	-7.177024467419399E-003	1.6693439E-006
2	1	0	1	7.775199803581927E+000	-2.2754313E-001	-2.2760102E-001	-6.753466349718240E-003	1.5370958E-006
2	1	0	0	7.825399802313768E+000	-2.2252063E-001	-2.2258611E-001	-6.364303598575542E-003	1.4166055E-006
2	1	0	0	7.875399801050662E+000	-2.1752338E-001	-2.1757790E-001	-5.974636377515431E-003	1.2999488E-006
2	1	0	0	7.925399799787556E+000	-2.1252216E-001	-2.1258119E-001	-5.599791092993460E-003	1.1904102E-006
2	1	0	1	7.975499798521923E+000	-2.0751090E-001	-2.0757055E-001	-5.253956657831836E-003	1.0905667E-006
2	1	0	1	8.025599797256291E+000	-2.0250368E-001	-2.0256418E-001	-4.942364833366186E-003	1.0011461E-006
2	1	0	1	8.090899795606674E+000	-1.9597422E-001	-1.9602965E-001	-4.530538188884881E-003	8.8811981E-007
2	1	0	0	8.156199793957057E+000	-1.8944126E-001	-1.8949695E-001	-4.170762694549995E-003	7.9034680E-007
2	1	0	1	8.206299792691425E+000	-1.8443216E-001	-1.8448663E-001	-3.913336464275149E-003	7.2195826E-007
2	1	0	1	8.256399791425793E+000	-1.7942287E-001	-1.7946625E-001	-3.629314069283365E-003	6.5133941E-007
2	1	0	1	8.306399790162686E+000	-1.7442021E-001	-1.7445153E-001	-3.381210925687550E-003	5.8985739E-007
2	1	0	0	8.356499788897054E+000	-1.6941325E-001	-1.6944915E-001	-3.150661711175498E-003	5.3387697E-007
2	1	0	0	8.406599787631421E+000	-1.6440204E-001	-1.6443135E-001	-2.933633583449620E-003	4.8238132E-007
2	1	0	0	8.456599786368315E+000	-1.5940081E-001	-1.5942971E-001	-2.729078778807244E-003	4.3509624E-007
2	1	0	0	8.506599785105209E+000	-1.5440351E-001	-1.5441881E-001	-2.532130470107155E-003	3.9100857E-007
2	1	0	1	8.556799783837050E+000	-1.4938113E-001	-1.4940479E-001	-2.354512751804677E-003	3.5177550E-007
2	1	0	1	8.606799782573944E+000	-1.4438204E-001	-1.4440773E-001	-2.175187936459998E-003	3.1411398E-007
2	1	0	1	8.656799781310838E+000	-1.3938251E-001	-1.3937749E-001	-2.015650322423960E-003	2.8093629E-007
2	1	0	0	8.706999780042679E+000	-1.3436039E-001	-1.3436945E-001	-1.860740180303831E-003	2.5002663E-007
2	1	0	0	8.756999778779573E+000	-1.2936346E-001	-1.2936653E-001	-1.710036947772053E-003	2.2122155E-007
2	1	0	0	8.806999777516467E+000	-1.2436181E-001	-1.2437376E-001	-1.574759970282284E-003	1.9585882E-007
2	1	0	1	8.857099776250834E+000	-1.1935098E-001	-1.1936611E-001	-1.438920799112439E-003	1.7175837E-007
2	1	0	1	8.907199774985202E+000	-1.1434338E-001	-1.1436210E-001	-1.314052721321914E-003	1.5027783E-007
2	1	0	1	8.957199773722095E+000	-1.0934090E-001	-1.0934831E-001	-1.193972912249715E-003	1.3055892E-007
2	1	0	0	9.007299772456463E+000	-1.0433224E-001	-1.0433682E-001	-1.084395350841627E-003	1.1314236E-007
2	1	0	0	9.057399771190831E+000	-9.9322625E-002	-9.9332549E-002	-9.779566535636081E-004	9.7142930E-008
2	1	0	0	9.107399769927724E+000	-9.4320141E-002	-9.4315574E-002	-8.781665774362742E-004	8.2824783E-008
2	1	0	1	9.157499768662092E+000	-8.9313529E-002	-8.9341670E-002	-7.839335833755776E-004	7.0037935E-008
2	1	0	1	9.207599767396459E+000	-8.4301658E-002	-8.4322579E-002	-6.878693776320045E-004	5.8002922E-008
2	1	0	1	9.257599766133353E+000	-7.9300977E-002	-7.9310283E-002	-5.917314584418037E-004	4.6930388E-008
2	1	0	1	9.307599764870247E+000	-7.4303046E-002	-7.4316017E-002	-5.127118153421418E-004	3.8102701E-008
2	1	0	0	9.357799763602088E+000	-6.9280677E-002	-6.9293633E-002	-4.332999430048520E-004	3.0024928E-008
2	1	0	0	9.407799762338982E+000	-6.4282268E-002	-6.4296283E-002	-3.546563078286740E-004	2.2803082E-008
2	1	0	0	9.457799761075876E+000	-5.9282318E-002	-5.9296258E-002	-2.836814958993886E-004	1.6821252E-008
2	1	0	1	9.507999759807717E+000	-5.4259941E-002	-5.4273281E-002	-2.095133787997693E-004	1.1370979E-008
2	1	0	1	9.557999758544611E+000	-4.9263559E-002	-4.9280718E-002	-1.392300349825580E-004	6.8613559E-009
2	1	0	1	9.607999757281505E+000	-4.4261381E-002	-4.4280469E-002	-7.194681356615989E-005	3.1858387E-009
2	1	0	0	9.658099756015872E+000	-3.9251100E-002	-3.9244227E-002	-9.068465400055938E-006	3.5588490E-010
2	1	0	0	9.708199754750240E+000	-3.4243029E-002	-3.4235347E-002	5.477911868505118E-005	1.8753821E-009
2	1	0	0	9.758199753487133E+000	-2.9240634E-002	-2.9254042E-002	1.145962983050784E-004	3.3524048E-009
2	1	0	1	9.808299752221501E+000	-2.4232386E-002	-2.4231352E-002	1.743945243779989E-004	4.2258153E-009
2	1	0	1	9.858399750955869E+000	-1.9222099E-002	-1.9208565E-002	2.326084391117368E-004	4.4680744E-009
2	1	0	1	9.908399749692762E+000	-1.4219902E-002	-1.4220133E-002	2.873249742419451E-004	4.0857993E-009
2	1	0	1	9.958399748429656E+000	-9.2235506E-003	-9.2588877E-003	3.426811196419900E-004	3.1728460E-009
2	1	0	0	1.000859974716150E+001	-4.2011621E-003	-4.2336476E-003	3.974108686267321E-004	1.6824976E-009
2	1	0	0	1.005859974589839E+001	7.9881883E-004	7.8227307E-004	4.515937053919308E-004	3.5326958E-010
2	1	0	0	1.010859974463528E+001	5.7971664E-003	5.7670255E-003	5.059111200652385E-004	2.9176024E-009
2	1	0	1	1.015879974336713E+001	1.0819533E-002	1.0800943E-002	5.608398779162471E-004	6.0575993E-009
2	1	0	1	1.020879974210402E+001	1.5817475E-002	1.5803983E-002	6.133321590681123E-004	9.6930917E-009
2	1	0	1	1.025879974084091E+001	2.0818040E-002	2.0805374E-002	6.672052846650699E-004	1.3881455E-008
2	1	0	0	1.030889973957528E+001	2.5829913E-002	2.5810966E-002	7.215033514111841E-004	1.8622698E-008
2	1	0	0	1.035899973830965E+001	3.0836524E-002	3.0822771E-002	7.764267743255761E-004	2.3931625E-008
2	1	0	0	1.040899973704654E+001	3.5838716E-002	3.5826769E-002	8.320809884035264E-004	2.9810774E-008
2	1	0	1	1.045909973578091E+001	4.0848576E-002	4.0836927E-002	8.924369100577687E-004	3.6444380E-008
2	1	0	1	1.050919973451528E+001	4.5857210E-002	4.5851216E-002	9.508587636865269E-004	4.3598032E-008
2	1	0	1	1.055919973325217E+001	5.0859582E-002	5.0849020E-002	1.008698133942902E-003	5.1291313E-008
2	1	0	0	1.060929973198654E+001	5.5867210E-002	5.5856783E-002	1.071458219241451E-003	5.9848212E-008
2	1	0	0	1.065939973072091E+001	6.0878120E-002	6.0865700E-002	1.129317931537858E-003	6.8736725E-008
2	1	0	0	1.070939972945780E+001	6.5879658E-002	6.5869525E-002	1.188718486503786E-003	7.8300324E-008
2	1	0	0	1.075939972819469E+001	7.0876420E-002	7.0871614E-002	1.243073853560483E-003	8.8098652E-008
2	1	0	1	1.080959972692654E+001	7.5898990E-002	7.5893231E-002	1.303402007858625E-003	9.8919386E-008
2	1	0	1	1.085959972566343E+001	8.0898300E-002	8.0896065E-002	1.365882697552579E-003	1.1049453E-007
2	1	0	1	1.090959972440032E+001	8.5897282E-002	8.5889228E-002	1.428558272350155E-003	1.2269777E-007
2	1	0	0	1.095979972313216E+001	9.0919606E-002	9.0903863E-002	1.498202984114374E-003	1.3619244E-007
2	1	0	0	1.100979972186906E+001	9.5916972E-002	9.5909521E-002	1.566794345424314E-003	1.5027049E-007
2	1	0	0	1.104249972104299E+001	9.9191159E-002	9.9190980E-002	1.609864247877551E-003	1.5968401E-007
2	1	0	0	1.105059972083836E+001	9.9997252E-002	1.0001329E-001	1.624077403297026E-003	1.6242933E-007