EC-Lab ASCII FILE
Nb header lines : 55                          

I-V Characterization

Run on channel : 1 (SN 6514)
User : 
CE vs. WE compliance from -10 V to 10 V
Electrode connection : standard
Ewe ctrl range : min = -1.10 V, max = 0.20 V
Safety Limits :
	Do not start on E overload
Acquisition started on : 06/15/2016 18:42:02
Saved on :
	File : B125-G54-UN-G-D1GB-C9 BW 100mVs_01_IVC_C01.mpr
	Directory : E:\EC-Lab measurements\B125-G54-UN-G-D1GB\
	Host : 10.0.2.15
Device : VSP (SN 0295)
Address : USB
EC-Lab for windows v11.01 (software)
Internet server v11.00 (firmware)
Command interpretor v11.00 (firmware)
Electrode material : 
Initial state : 
Electrolyte : 
Comments : 
Electrode surface area : 0.001 cm²
Characteristic mass : 0.001 g
Equivalent Weight : 0.000 g/eq.
Density : 0.000 g/cm3
tR (h:m:s)          0:00:0.0000         
dER/dt (mV/h)       0.0                 
dER (mV)            0                   
dtR (s)             0.0000              
dE/dt               100.000             
dE/dt unit          mV/s                
Ei (V)              -1.000              
vs.                 Ref                 
EL (V)              0.100               
vs.                 Ref                 
record              <I>                 
dI                  0.000               
unit dI             µA                  
tI (s)              0.1000              
step percent        100                 
N                   100                 
E range min (V)     -1.100              
E range max (V)     0.200               
I Range             Auto                
I Range min         Unset               
I Range max         Unset               
I Range init        Unset               
Bandwidth           5                   

mode	ox/red	error	control changes	time/s	control/V	Ewe/V	<I>/mA	P/W
2	1	0	1	1.399999964633025E-001	-9.9106032E-001	-9.9113822E-001	-1.144400894641876E+000	1.1342595E-003
2	1	0	0	1.652999958241708E-001	-9.8853415E-001	-9.8863894E-001	-1.150427667551320E+000	1.1373576E-003
2	1	0	0	2.153999945585383E-001	-9.8352432E-001	-9.8363751E-001	-1.150335081484613E+000	1.1315127E-003
2	1	0	0	2.653999932954321E-001	-9.7852182E-001	-9.7862798E-001	-1.148748415872138E+000	1.1241974E-003
2	1	0	1	3.154999920297996E-001	-9.7351581E-001	-9.7362202E-001	-1.145623782747011E+000	1.1154045E-003
2	1	0	1	3.655999907641672E-001	-9.6850365E-001	-9.6861273E-001	-1.141908263714999E+000	1.1060669E-003
2	1	0	1	4.155999895010609E-001	-9.6350324E-001	-9.6361279E-001	-1.135282371199104E+000	1.0939726E-003
2	1	0	1	4.655999882379547E-001	-9.5850474E-001	-9.5858628E-001	-1.126266577230341E+000	1.0796237E-003
2	1	0	0	5.157999869697960E-001	-9.5348251E-001	-9.5358908E-001	-1.114928279760193E+000	1.0631834E-003
2	1	0	0	5.657999857066898E-001	-9.4848466E-001	-9.4859695E-001	-1.101604815170034E+000	1.0449790E-003
2	1	0	0	6.157999844435835E-001	-9.4348407E-001	-9.4359535E-001	-1.085881333184782E+000	1.0246326E-003
2	1	0	1	6.658999831779511E-001	-9.3847233E-001	-9.3857640E-001	-1.065366747149652E+000	9.9992810E-004
2	1	0	1	7.159999819123186E-001	-9.3346572E-001	-9.3358952E-001	-1.041455403175902E+000	9.7229186E-004
2	1	0	1	7.659999806492124E-001	-9.2846310E-001	-9.2858750E-001	-1.016173709806667E+000	9.4360620E-004
2	1	0	0	8.160999793835799E-001	-9.2345291E-001	-9.2358977E-001	-9.902262062260785E-001	9.1456278E-004
2	1	0	0	8.661999781179475E-001	-9.1844505E-001	-9.1854250E-001	-9.586012993706803E-001	8.8051602E-004
2	1	0	0	9.161999768548412E-001	-9.1344219E-001	-9.1355348E-001	-9.250788283747013E-001	8.4510900E-004
2	1	0	1	9.662999755892088E-001	-9.0843481E-001	-9.0854847E-001	-8.883056662679414E-001	8.0706878E-004
2	1	0	1	1.016399974323576E+000	-9.0342396E-001	-9.0353340E-001	-8.510852791597188E-001	7.6898397E-004
2	1	0	1	1.066399973060470E+000	-8.9842200E-001	-8.9851493E-001	-8.121986632784139E-001	7.2977261E-004
2	1	0	1	1.116399971797364E+000	-8.9342517E-001	-8.9353478E-001	-7.722893255181793E-001	6.9006736E-004
2	1	0	0	1.166599970529205E+000	-8.8840318E-001	-8.8849968E-001	-7.318467224925591E-001	6.5024558E-004
2	1	0	0	1.216599969266099E+000	-8.8340330E-001	-8.8350540E-001	-6.905957173909005E-001	6.1014504E-004
2	1	0	0	1.266599968002993E+000	-8.7840474E-001	-8.7851208E-001	-6.496003752512225E-001	5.7068176E-004
2	1	0	1	1.316799966734834E+000	-8.7338251E-001	-8.7348646E-001	-6.076749634886038E-001	5.3079583E-004
2	1	0	1	1.366799965471728E+000	-8.6838460E-001	-8.6850756E-001	-5.665799404016514E-001	4.9207895E-004
2	1	0	1	1.416799964208622E+000	-8.6338353E-001	-8.6350125E-001	-5.255725369344213E-001	4.5383253E-004
2	1	0	0	1.466899962942989E+000	-8.5837203E-001	-8.5848290E-001	-4.856007904275783E-001	4.1687998E-004
2	1	0	0	1.516999961677357E+000	-8.5336536E-001	-8.5347587E-001	-4.461651426301440E-001	3.8079117E-004
2	1	0	0	1.581999960035319E+000	-8.4686422E-001	-8.4690768E-001	-3.936809079154653E-001	3.3341139E-004
2	1	0	1	1.647199958388228E+000	-8.4034294E-001	-8.4039456E-001	-3.453849471383474E-001	2.9025963E-004
2	1	0	1	1.697199957125122E+000	-8.3534354E-001	-8.3541465E-001	-3.084688993487372E-001	2.5769943E-004
2	1	0	1	1.747199955862015E+000	-8.3034396E-001	-8.3041018E-001	-2.722780153764628E-001	2.2610243E-004
2	1	0	0	1.797399954593857E+000	-8.2532203E-001	-8.2538170E-001	-2.365470567638459E-001	1.9524161E-004
2	1	0	0	1.847399953330751E+000	-8.2032466E-001	-8.2038951E-001	-2.020949056114305E-001	1.6579655E-004
2	1	0	0	1.897399952067644E+000	-8.1532365E-001	-8.1538928E-001	-1.683811796394070E-001	1.3729621E-004
2	1	0	1	1.947499950802012E+000	-8.1031239E-001	-8.1037968E-001	-1.353823982175064E-001	1.0971115E-004
2	1	0	1	1.997599949536379E+000	-8.0530500E-001	-8.0536109E-001	-1.031087070596071E-001	8.3039740E-005
2	1	0	1	2.047599948273273E+000	-8.0030268E-001	-8.0035055E-001	-7.163548692492738E-002	5.7333502E-005
2	1	0	0	2.097699947007641E+000	-7.9529345E-001	-7.9535794E-001	-4.086047949674376E-002	3.2498709E-005
2	1	0	0	2.147799945742008E+000	-7.9028434E-001	-7.9032248E-001	-1.089360491048753E-002	8.6094606E-006
2	1	0	0	2.197799944478902E+000	-7.8528172E-001	-7.8532976E-001	1.831275014821382E-002	1.4381548E-005
2	1	0	1	2.247899943213270E+000	-7.8027505E-001	-7.8030980E-001	4.676012905303395E-002	3.6487389E-005
2	1	0	1	2.297999941947637E+000	-7.7526337E-001	-7.7531004E-001	7.459961593393949E-002	5.7837831E-005
2	1	0	1	2.347999940684531E+000	-7.7026242E-001	-7.7031296E-001	1.018079400314658E-001	7.8423975E-005
2	1	0	1	2.397999939421425E+000	-7.6526457E-001	-7.6530582E-001	1.282638320522544E-001	9.8161057E-005
2	1	0	0	2.448199938153266E+000	-7.6024264E-001	-7.6027137E-001	1.542300254576983E-001	1.1725667E-004
2	1	0	0	2.498199936890160E+000	-7.5524342E-001	-7.5528449E-001	1.795750301807297E-001	1.3563024E-004
2	1	0	0	2.548199935627053E+000	-7.5024426E-001	-7.5026882E-001	2.041124279753377E-001	1.5313919E-004
2	1	0	1	2.598399934358895E+000	-7.4522185E-001	-7.4524128E-001	2.283706123398801E-001	1.7019121E-004
2	1	0	1	2.648399933095789E+000	-7.4022472E-001	-7.4023694E-001	2.519051760454092E-001	1.8646952E-004
2	1	0	1	2.698399931832682E+000	-7.3522300E-001	-7.3524117E-001	2.744952724154091E-001	2.0182022E-004
2	1	0	0	2.748499930567050E+000	-7.3021239E-001	-7.3024315E-001	2.966166522261089E-001	2.1660228E-004
2	1	0	0	2.798599929301417E+000	-7.2520453E-001	-7.2523040E-001	3.185062171371547E-001	2.3099039E-004
2	1	0	0	2.848599928038311E+000	-7.2020227E-001	-7.2022450E-001	3.399379746107511E-001	2.4483167E-004
2	1	0	1	2.898699926772679E+000	-7.1519381E-001	-7.1523237E-001	3.606601288028757E-001	2.5795581E-004
2	1	0	1	2.948799925507046E+000	-7.1018374E-001	-7.1022898E-001	3.805533217808321E-001	2.7028000E-004
2	1	0	1	2.998799924243940E+000	-7.0518160E-001	-7.0522732E-001	3.999224979130354E-001	2.8203626E-004
2	1	0	0	3.048899922978308E+000	-7.0017487E-001	-7.0020807E-001	4.193084422412863E-001	2.9360317E-004
2	1	0	0	3.098999921712675E+000	-6.9516265E-001	-6.9519556E-001	4.382115524388723E-001	3.0464272E-004
2	1	0	0	3.148999920449569E+000	-6.9016230E-001	-6.9019729E-001	4.563648418740308E-001	3.1498176E-004
2	1	0	0	3.198999919186463E+000	-6.8516469E-001	-6.8519479E-001	4.736596881638961E-001	3.2454915E-004
2	1	0	1	3.249199917918304E+000	-6.8014216E-001	-6.8017608E-001	4.908692073413405E-001	3.3387748E-004
2	1	0	1	3.299199916655198E+000	-6.7514378E-001	-6.7518461E-001	5.078863511567746E-001	3.4291705E-004
2	1	0	1	3.349199915392092E+000	-6.7014343E-001	-6.7018366E-001	5.248506644345572E-001	3.5174633E-004
2	1	0	0	3.399299914126459E+000	-6.6513121E-001	-6.6517824E-001	5.411004532325405E-001	3.5992824E-004
2	1	0	0	3.449399912860827E+000	-6.6012478E-001	-6.6015321E-001	5.578971055545372E-001	3.6829757E-004
2	1	0	0	3.499399911597720E+000	-6.5512270E-001	-6.5516078E-001	5.735727731693760E-001	3.7578240E-004
2	1	0	1	3.549499910332088E+000	-6.5011263E-001	-6.5015817E-001	5.888602545313066E-001	3.8285230E-004
2	1	0	1	3.599599909066455E+000	-6.4510417E-001	-6.4514554E-001	6.030707424572364E-001	3.8906839E-004
2	1	0	1	3.649599907803349E+000	-6.4010191E-001	-6.4015251E-001	6.170908274759448E-001	3.9503226E-004
2	1	0	0	3.699699906537717E+000	-6.3509375E-001	-6.3516003E-001	6.303663211472608E-001	4.0038349E-004
2	1	0	0	3.749799905272084E+000	-6.3008296E-001	-6.3014787E-001	6.442084062606082E-001	4.0594657E-004
2	1	0	0	3.799799904008978E+000	-6.2508094E-001	-6.2513977E-001	6.583638554839641E-001	4.1156943E-004
2	1	0	0	3.849799902745872E+000	-6.2008488E-001	-6.2015200E-001	6.704481551827506E-001	4.1577977E-004
2	1	0	1	3.899999901477713E+000	-6.1506236E-001	-6.1513573E-001	6.830523320503872E-001	4.2016990E-004
2	1	0	1	3.949999900214607E+000	-6.1006272E-001	-6.1012864E-001	6.958960354721397E-001	4.2458609E-004
2	1	0	1	3.999999898951501E+000	-6.0506397E-001	-6.0513347E-001	7.078709608661867E-001	4.2835640E-004
2	1	0	0	4.050199897683342E+000	-6.0004151E-001	-6.0009331E-001	7.200095618506261E-001	4.3207291E-004
2	1	0	0	4.100199896420236E+000	-5.9504354E-001	-5.9510231E-001	7.309277429378760E-001	4.3497680E-004
2	1	0	0	4.150199895157130E+000	-5.9004325E-001	-5.9009939E-001	7.419570417075363E-001	4.3782839E-004
2	1	0	1	4.200299893891497E+000	-5.8503133E-001	-5.8508193E-001	7.528388835684652E-001	4.4047242E-004
2	1	0	1	4.250399892625865E+000	-5.8002478E-001	-5.8008695E-001	7.627762781712271E-001	4.4247656E-004
2	1	0	1	4.300399891362758E+000	-5.7502252E-001	-5.7508880E-001	7.726896064373570E-001	4.4436514E-004
2	1	0	0	4.350499890097126E+000	-5.7001269E-001	-5.7007986E-001	7.822668908017043E-001	4.4595459E-004
2	1	0	0	4.400599888831493E+000	-5.6500345E-001	-5.6506532E-001	7.914067135356575E-001	4.4719648E-004
2	1	0	0	4.450599887568387E+000	-5.6000125E-001	-5.6006640E-001	7.994551580829601E-001	4.4774797E-004
2	1	0	1	4.500699886302755E+000	-5.5499405E-001	-5.5507320E-001	8.082116521915843E-001	4.4861663E-004
2	1	0	1	4.550799885037122E+000	-5.4998302E-001	-5.5003005E-001	8.168857175367572E-001	4.4931169E-004
2	1	0	1	4.600799883774016E+000	-5.4498178E-001	-5.4504764E-001	8.256397014342980E-001	4.5001297E-004
2	1	0	1	4.650799882510910E+000	-5.3998458E-001	-5.4002863E-001	8.326210711597177E-001	4.4963922E-004
2	1	0	0	4.700999881242751E+000	-5.3496194E-001	-5.3502238E-001	8.396119619735449E-001	4.4921119E-004
2	1	0	0	4.750999879979645E+000	-5.2996248E-001	-5.3003001E-001	8.466056129608628E-001	4.4872638E-004
2	1	0	0	4.800999878716539E+000	-5.2496380E-001	-5.2502173E-001	8.534057506069814E-001	4.4805655E-004
2	1	0	1	4.851199877448380E+000	-5.1994121E-001	-5.2000755E-001	8.601779126032145E-001	4.4729901E-004
2	1	0	1	4.901199876185274E+000	-5.1494426E-001	-5.1501101E-001	8.671671684780873E-001	4.4660064E-004
2	1	0	1	4.951199874922168E+000	-5.0994289E-001	-5.0999844E-001	8.732695383409865E-001	4.4536611E-004
2	1	0	0	5.001299873656535E+000	-5.0493151E-001	-5.0499028E-001	8.806231381983167E-001	4.4470612E-004
2	1	0	0	5.051399872390903E+000	-4.9992400E-001	-4.9998233E-001	8.868138155829999E-001	4.4339124E-004
2	1	0	0	5.101399871127796E+000	-4.9492198E-001	-4.9498457E-001	8.937088019888826E-001	4.4237205E-004
2	1	0	1	5.151499869862164E+000	-4.8991275E-001	-4.8997107E-001	8.989214918226862E-001	4.4044552E-004
2	1	0	1	5.201599868596531E+000	-4.8490348E-001	-4.8495904E-001	9.049001598924136E-001	4.3883952E-004
2	1	0	1	5.251599867333425E+000	-4.7990134E-001	-4.7995597E-001	9.104251241713950E-001	4.3696398E-004
2	1	0	0	5.301699866067793E+000	-4.7489414E-001	-4.7493139E-001	9.161403854798786E-001	4.3510384E-004
2	1	0	0	5.351799864802160E+000	-4.6988243E-001	-4.6992391E-001	9.215585582518027E-001	4.3306241E-004
2	1	0	0	5.401799863539054E+000	-4.6488157E-001	-4.6493086E-001	9.262978141496667E-001	4.3066446E-004
2	1	0	0	5.451799862275948E+000	-4.5988420E-001	-4.5992807E-001	9.320334630044584E-001	4.2866834E-004
2	1	0	1	5.501999861007789E+000	-4.5486170E-001	-4.5490041E-001	9.368972183957660E-001	4.2619492E-004
2	1	0	1	5.551999859744683E+000	-4.4986320E-001	-4.4989985E-001	9.409837720694234E-001	4.2334845E-004
2	1	0	1	5.601999858481577E+000	-4.4486341E-001	-4.4490492E-001	9.445394251773711E-001	4.2023024E-004
2	1	0	0	5.652199857213418E+000	-4.3984091E-001	-4.3987811E-001	9.485619243717061E-001	4.1725163E-004
2	1	0	0	5.702199855950312E+000	-4.3484402E-001	-4.3487611E-001	9.529480710910594E-001	4.1441436E-004
2	1	0	0	5.752199854687206E+000	-4.2984265E-001	-4.2986590E-001	9.580564749967468E-001	4.1183582E-004
2	1	0	1	5.802299853421573E+000	-4.2483157E-001	-4.2486385E-001	9.617331912653277E-001	4.0860567E-004
2	1	0	1	5.852399852155941E+000	-4.1982409E-001	-4.1986719E-001	9.656278135775267E-001	4.0543542E-004
2	1	0	1	5.902399850892834E+000	-4.1482154E-001	-4.1485268E-001	9.685239737978120E-001	4.0179476E-004
2	1	0	0	5.952499849627202E+000	-4.0981293E-001	-4.0984309E-001	9.712814945556794E-001	3.9807300E-004
2	1	0	0	6.002599848361569E+000	-4.0480295E-001	-4.0483958E-001	9.752709326798930E-001	3.9482827E-004
2	1	0	0	6.052599847098463E+000	-3.9980075E-001	-3.9985618E-001	9.776923488681728E-001	3.9093633E-004
2	1	0	1	6.102699845832831E+000	-3.9479414E-001	-3.9483613E-001	9.810121403454204E-001	3.8733904E-004
2	1	0	1	6.152799844567198E+000	-3.8978225E-001	-3.8981310E-001	9.844974367316155E-001	3.8377001E-004
2	1	0	1	6.202799843304092E+000	-3.8478196E-001	-3.8481611E-001	9.867088549644762E-001	3.7970147E-004
2	1	0	1	6.252799842040986E+000	-3.7978369E-001	-3.7982792E-001	9.895994283874927E-001	3.7587748E-004
2	1	0	0	6.302999840772827E+000	-3.7476140E-001	-3.7480989E-001	9.919663007741848E-001	3.7179879E-004
2	1	0	0	6.352999839509721E+000	-3.6976299E-001	-3.6979657E-001	9.933104683252125E-001	3.6732282E-004
2	1	0	0	6.402999838246615E+000	-3.6476287E-001	-3.6481237E-001	9.954569934709820E-001	3.6315504E-004
2	1	0	1	6.453099836980982E+000	-3.5975042E-001	-3.5978797E-001	9.980273129473254E-001	3.5907823E-004
2	1	0	1	6.503199835715350E+000	-3.5474452E-001	-3.5479754E-001	1.001397967512263E+000	3.5529354E-004
2	1	0	1	6.553199834452244E+000	-3.4974200E-001	-3.4978139E-001	1.003001432522893E+000	3.5083125E-004
2	1	0	0	6.603299833186611E+000	-3.4473187E-001	-3.4475866E-001	1.003995213575937E+000	3.4613605E-004
2	1	0	0	6.653399831920979E+000	-3.3972350E-001	-3.3975485E-001	1.005878948427251E+000	3.4175225E-004
2	1	0	0	6.703399830657872E+000	-3.3472127E-001	-3.3474410E-001	1.008088357874618E+000	3.3745164E-004
2	1	0	1	6.753499829392240E+000	-3.2971296E-001	-3.2973424E-001	1.010573872119673E+000	3.3322081E-004
2	1	0	1	6.803599828126607E+000	-3.2470283E-001	-3.2473731E-001	1.012284899689714E+000	3.2872669E-004
2	1	0	1	6.853599826863501E+000	-3.1970081E-001	-3.1975007E-001	1.013817425896135E+000	3.2416818E-004
2	1	0	1	6.903599825600395E+000	-3.1470397E-001	-3.1473786E-001	1.016035647584035E+000	3.1978489E-004
2	1	0	0	6.953799824332236E+000	-3.0968162E-001	-3.0973342E-001	1.018422361975300E+000	3.1543945E-004
2	1	0	0	7.003799823069130E+000	-3.0468199E-001	-3.0472109E-001	1.018913601772992E+000	3.1048447E-004
2	1	0	0	7.068799821427092E+000	-2.9818234E-001	-2.9827884E-001	1.025199456503909E+000	3.0579531E-004
2	1	0	1	7.133999819780001E+000	-2.9166344E-001	-2.9175794E-001	1.026280997924380E+000	2.9942562E-004
2	1	0	1	7.183999818516895E+000	-2.8666094E-001	-2.8675139E-001	1.027929166855454E+000	2.9476010E-004
2	1	0	0	7.234099817251263E+000	-2.8165326E-001	-2.8173649E-001	1.029082647496525E+000	2.8993015E-004
2	1	0	0	7.284199815985630E+000	-2.7664250E-001	-2.7673391E-001	1.030298442932834E+000	2.8511850E-004
2	1	0	0	7.334199814722524E+000	-2.7164087E-001	-2.7171537E-001	1.031910656474133E+000	2.8038598E-004
2	1	0	0	7.384199813459418E+000	-2.6664388E-001	-2.6671678E-001	1.033984051594565E+000	2.7578088E-004
2	1	0	1	7.434399812191259E+000	-2.6162171E-001	-2.6170304E-001	1.035191202502753E+000	2.7091269E-004
2	1	0	1	7.484399810928153E+000	-2.5662220E-001	-2.5670949E-001	1.037449724099455E+000	2.6632319E-004
2	1	0	1	7.534399809665047E+000	-2.5162300E-001	-2.5171134E-001	1.039125350815313E+000	2.6155965E-004
2	1	0	0	7.584599808396888E+000	-2.4660079E-001	-2.4669142E-001	1.039631929675444E+000	2.5646828E-004
2	1	0	0	7.634599807133782E+000	-2.4160342E-001	-2.4171346E-001	1.039905409983028E+000	2.5135913E-004
2	1	0	0	7.684599805870675E+000	-2.3660217E-001	-2.3670833E-001	1.042037726512628E+000	2.4665901E-004
2	1	0	1	7.734699804605043E+000	-2.3159069E-001	-2.3170263E-001	1.042668925163420E+000	2.4158912E-004
2	1	0	1	7.784799803339411E+000	-2.2658387E-001	-2.2669257E-001	1.043921591426446E+000	2.3664927E-004
2	1	0	1	7.834799802076304E+000	-2.2158137E-001	-2.2169480E-001	1.044477130943285E+000	2.3155514E-004
2	1	0	0	7.884899800810672E+000	-2.1657225E-001	-2.1668573E-001	1.045035851070192E+000	2.2644435E-004
2	1	0	0	7.934999799545039E+000	-2.1156293E-001	-2.1166968E-001	1.046019911502880E+000	2.2141071E-004
2	1	0	0	7.984999798281933E+000	-2.0656057E-001	-2.0667361E-001	1.046774270169159E+000	2.1634062E-004
2	1	0	1	8.035099797016301E+000	-2.0155329E-001	-2.0166582E-001	1.047271395616534E+000	2.1119884E-004
2	1	0	1	8.085199795750668E+000	-1.9654214E-001	-1.9664727E-001	1.047110909551060E+000	2.0591151E-004
2	1	0	1	8.135199794487562E+000	-1.9154088E-001	-1.9164397E-001	1.048880207232496E+000	2.0101157E-004
2	1	0	1	8.185199793224456E+000	-1.8654358E-001	-1.8666318E-001	1.049625628382818E+000	1.9592646E-004
2	1	0	0	8.235399791956297E+000	-1.8152124E-001	-1.8163173E-001	1.049635048376449E+000	1.9064703E-004
2	1	0	0	8.285399790693191E+000	-1.7652225E-001	-1.7662092E-001	1.050137308686274E+000	1.8547621E-004
2	1	0	0	8.335399789430085E+000	-1.7152259E-001	-1.7161965E-001	1.051792616739717E+000	1.8050829E-004
2	1	0	1	8.385599788161926E+000	-1.6650043E-001	-1.6658272E-001	1.053222286222971E+000	1.7544863E-004
2	1	0	1	8.435599786898820E+000	-1.6150351E-001	-1.6159213E-001	1.054416414827520E+000	1.7038539E-004
2	1	0	1	8.485599785635713E+000	-1.5650178E-001	-1.5658556E-001	1.053720486113780E+000	1.6499741E-004
2	1	0	0	8.535699784370081E+000	-1.5149111E-001	-1.5156610E-001	1.054717082753049E+000	1.5985935E-004
2	1	0	0	8.585799783104449E+000	-1.4648351E-001	-1.4656954E-001	1.054668393744347E+000	1.5458226E-004
2	1	0	0	8.635799781841342E+000	-1.4148088E-001	-1.4155687E-001	1.054581276389292E+000	1.4928322E-004
2	1	0	1	8.685899780575710E+000	-1.3647227E-001	-1.3653165E-001	1.054279551487843E+000	1.4394253E-004
2	1	0	1	8.735999779310077E+000	-1.3146263E-001	-1.3153334E-001	1.055421226096842E+000	1.3882307E-004
2	1	0	1	8.785999778046971E+000	-1.2646015E-001	-1.2651835E-001	1.056776755110136E+000	1.3370166E-004
2	1	0	0	8.836099776781339E+000	-1.2145362E-001	-1.2151825E-001	1.058019172166798E+000	1.2856863E-004
2	1	0	0	8.886199775515706E+000	-1.1644175E-001	-1.1650393E-001	1.058885195696245E+000	1.2336428E-004
2	1	0	0	8.936199774252600E+000	-1.1144096E-001	-1.1150958E-001	1.058345664495068E+000	1.1801568E-004
2	1	0	0	8.986199772989494E+000	-1.0644309E-001	-1.0651639E-001	1.060046403189723E+000	1.1291232E-004
2	1	0	1	9.036399771721335E+000	-1.0142092E-001	-1.0149602E-001	1.062160946790554E+000	1.0780511E-004
2	1	0	1	9.086399770458229E+000	-9.6422322E-002	-9.6478321E-002	1.063225622270742E+000	1.0257823E-004
2	1	0	1	9.136399769195123E+000	-9.1422409E-002	-9.1491915E-002	1.063366902651355E+000	9.7289478E-005
2	1	0	0	9.186599767926964E+000	-8.6399965E-002	-8.6487807E-002	1.063564682421632E+000	9.1985377E-005
2	1	0	0	9.236599766663858E+000	-8.1403598E-002	-8.1464060E-002	1.062936634141709E+000	8.6591135E-005
2	1	0	0	9.286599765400751E+000	-7.6401442E-002	-7.6466583E-002	1.063847570848788E+000	8.1348786E-005
2	1	0	1	9.336699764135119E+000	-7.1391121E-002	-7.1446843E-002	1.063988124605793E+000	7.6018594E-005
2	1	0	1	9.386799762869487E+000	-6.6382892E-002	-6.6452645E-002	1.063912426805960E+000	7.0699796E-005
2	1	0	1	9.436799761606380E+000	-6.1380714E-002	-6.1449025E-002	1.065742241935973E+000	6.5488821E-005
2	1	0	0	9.486899760340748E+000	-5.6372423E-002	-5.6440230E-002	1.066385521545918E+000	6.0187045E-005
2	1	0	0	9.536999759075115E+000	-5.1362179E-002	-5.1437214E-002	1.065642570044684E+000	5.4813685E-005
2	1	0	0	9.586999757812009E+000	-4.6359979E-002	-4.6437837E-002	1.064446180192974E+000	4.9430579E-005
2	1	0	0	9.636999756548903E+000	-4.1363601E-002	-4.1425306E-002	1.065113330551288E+000	4.4122648E-005
2	1	0	1	9.687199755280744E+000	-3.6341425E-002	-3.6400981E-002	1.065156922213159E+000	3.8772756E-005
2	1	0	1	9.737199754017638E+000	-3.1341244E-002	-3.1405117E-002	1.065211448231064E+000	3.3453092E-005
2	1	0	1	9.787199752754532E+000	-2.6342867E-002	-2.6410956E-002	1.066444161653497E+000	2.8165810E-005
2	1	0	0	9.837399751486373E+000	-2.1320486E-002	-2.1371160E-002	1.067803239826350E+000	2.2820193E-005
2	1	0	0	9.887399750223267E+000	-1.6322521E-002	-1.6377572E-002	1.067803284275742E+000	1.7488024E-005
2	1	0	0	9.937399748960161E+000	-1.1321932E-002	-1.1418254E-002	1.067161453021919E+000	1.2185121E-005
2	1	0	1	9.987499747694528E+000	-6.3100415E-003	-6.3864845E-003	1.068650114734955E+000	6.8249174E-006
2	1	0	1	1.003759974642890E+001	-1.3033981E-003	-1.3896414E-003	1.069395890199068E+000	1.4860768E-006
2	1	0	1	1.008759974516579E+001	3.6987930E-003	3.6189917E-003	1.069623336949529E+000	3.8709582E-006
2	1	0	0	1.013769974390016E+001	8.7086447E-003	8.6220838E-003	1.069373487490196E+000	9.2202281E-006
2	1	0	0	1.018779974263452E+001	1.3717284E-002	1.3629959E-002	1.069706404137616E+000	1.4580054E-005
2	1	0	0	1.023779974137142E+001	1.8719671E-002	1.8646592E-002	1.069969172230239E+000	1.9951280E-005
2	1	0	1	1.028789974010579E+001	2.3727300E-002	2.3658097E-002	1.070345604058559E+000	2.5322341E-005
2	1	0	1	1.033799973884015E+001	2.8738171E-002	2.8666494E-002	1.070548058573544E+000	3.0688861E-005
2	1	0	1	1.038799973757705E+001	3.3739738E-002	3.3668347E-002	1.072231426288986E+000	3.6100260E-005
2	1	0	1	1.043799973631394E+001	3.8736463E-002	3.8672931E-002	1.071848831875243E+000	4.1451538E-005
2	1	0	0	1.048819973504578E+001	4.3758843E-002	4.3682549E-002	1.071875309335370E+000	4.6822246E-005
2	1	0	0	1.053819973378268E+001	4.8758395E-002	4.8687197E-002	1.072628859278794E+000	5.2223291E-005
2	1	0	0	1.058819973251957E+001	5.3757358E-002	5.3676780E-002	1.073153036953880E+000	5.7603400E-005
2	1	0	1	1.063839973125141E+001	5.8779679E-002	5.8727358E-002	1.074166887653856E+000	6.3082982E-005
2	1	0	1	1.068839972998830E+001	6.3777007E-002	6.3713618E-002	1.073771740273918E+000	6.8413879E-005
2	1	0	1	1.073839972872520E+001	6.8778016E-002	6.8690620E-002	1.073722253030655E+000	7.3754651E-005
2	1	0	0	1.078849972745957E+001	7.3789433E-002	7.3717900E-002	1.075468047040966E+000	7.9281243E-005
2	1	0	0	1.083859972619393E+001	7.8796715E-002	7.8734681E-002	1.075829528487159E+000	8.4705098E-005
2	1	0	0	1.088859972493083E+001	8.3798893E-002	8.3727345E-002	1.076667657066330E+000	9.0146525E-005
2	1	0	1	1.093869972366520E+001	8.8808082E-002	8.8726811E-002	1.076533651396369E+000	9.5517396E-005
2	1	0	1	1.098879972239956E+001	9.3817420E-002	9.3751274E-002	1.076105099500625E+000	1.0088622E-004
2	1	0	1	1.103199972130824E+001	9.8139785E-002	9.8079972E-002	1.075546777623526E+000	1.0548960E-004
2	1	0	0	1.105059972083836E+001	9.9997252E-002	9.9898703E-002	1.071596821149189E+000	1.0705114E-004