EC-Lab ASCII FILE
Nb header lines : 55                          

I-V Characterization

Run on channel : 1 (SN 6514)
User : 
CE vs. WE compliance from -10 V to 10 V
Electrode connection : standard
Ewe ctrl range : min = -1.10 V, max = 0.20 V
Safety Limits :
	Do not start on E overload
Acquisition started on : 06/15/2016 18:56:55
Saved on :
	File : B125-G54-UN-G-D1GB-C14 FW 100mVs_02_IVC_C01.mpr
	Directory : E:\EC-Lab measurements\B125-G54-UN-G-D1GB\
	Host : 10.0.2.15
Device : VSP (SN 0295)
Address : USB
EC-Lab for windows v11.01 (software)
Internet server v11.00 (firmware)
Command interpretor v11.00 (firmware)
Electrode material : 
Initial state : 
Electrolyte : 
Comments : 
Electrode surface area : 0.001 cm²
Characteristic mass : 0.001 g
Equivalent Weight : 0.000 g/eq.
Density : 0.000 g/cm3
tR (h:m:s)          0:00:0.0000         
dER/dt (mV/h)       0.0                 
dER (mV)            0                   
dtR (s)             0.0000              
dE/dt               100.000             
dE/dt unit          mV/s                
Ei (V)              0.100               
vs.                 Ref                 
EL (V)              -1.000              
vs.                 Ref                 
record              <I>                 
dI                  0.000               
unit dI             µA                  
tI (s)              0.1000              
step percent        100                 
N                   100                 
E range min (V)     -1.100              
E range max (V)     0.200               
I Range             Auto                
I Range min         Unset               
I Range max         Unset               
I Range init        Unset               
Bandwidth           5                   

mode	ox/red	error	control changes	time/s	control/V	Ewe/V	<I>/mA	P/W
2	0	0	0	1.108139972006029E+001	9.6993521E-002	9.6843004E-002	1.115566611289978E+000	1.0803482E-004
2	0	0	1	1.110669971942116E+001	9.4465211E-002	9.4398826E-002	1.104452002346132E+000	1.0425897E-004
2	0	0	1	1.115679971815553E+001	8.9458957E-002	8.9382611E-002	1.103790994724819E+000	9.8659722E-005
2	0	0	1	1.120679971689242E+001	8.4456772E-002	8.4377147E-002	1.103116620885298E+000	9.3077833E-005
2	0	0	0	1.125689971562679E+001	7.9446577E-002	7.9365171E-002	1.102431553814700E+000	8.7494671E-005
2	0	0	0	1.130699971436115E+001	7.4438289E-002	7.4369639E-002	1.101771439468536E+000	8.1938342E-005
2	0	0	0	1.135699971309805E+001	6.9435887E-002	6.9363587E-002	1.101567964601571E+000	7.6408702E-005
2	0	0	1	1.140709971183242E+001	6.4427882E-002	6.4354293E-002	1.102082743287791E+000	7.0923757E-005
2	0	0	1	1.145719971056678E+001	5.9417386E-002	5.9347484E-002	1.100165597159092E+000	6.5292057E-005
2	0	0	1	1.150719970930368E+001	5.4415412E-002	5.4339580E-002	1.099115980099670E+000	5.9725502E-005
2	0	0	1	1.155719970804057E+001	4.9418896E-002	4.9345072E-002	1.098167533586973E+000	5.4189157E-005
2	0	0	0	1.160739970677241E+001	4.4396721E-002	4.4300884E-002	1.097765329420655E+000	4.8631973E-005
2	0	0	0	1.165739970550931E+001	3.9396774E-002	3.9316755E-002	1.096763758655714E+000	4.3121192E-005
2	0	0	0	1.170739970424620E+001	3.4398209E-002	3.4316093E-002	1.095355737733460E+000	3.7588328E-005
2	0	0	1	1.175759970297804E+001	2.9375846E-002	2.9304346E-002	1.094013180604708E+000	3.2059343E-005
2	0	0	1	1.180759970171493E+001	2.4378115E-002	2.4303196E-002	1.093484963086372E+000	2.6575179E-005
2	0	0	1	1.185759970045183E+001	1.9377336E-002	1.9311523E-002	1.093441641465791E+000	2.1116024E-005
2	0	0	0	1.190769969918620E+001	1.4365667E-002	1.4275611E-002	1.093603743151956E+000	1.5611862E-005
2	0	0	0	1.195779969792056E+001	9.3588457E-003	9.2690540E-003	1.091928242756796E+000	1.0121142E-005
2	0	0	0	1.200779969665746E+001	4.3566641E-003	4.2744847E-003	1.093017337638500E+000	4.6720861E-006
2	0	0	1	1.205789969539182E+001	-6.5298774E-004	-7.3400530E-004	1.092880370479362E+000	8.0217995E-007
2	0	0	1	1.210799969412619E+001	-5.6618508E-003	-5.7486747E-003	1.092634952832444E+000	6.2812028E-006
2	0	0	1	1.215799969286309E+001	-1.0664255E-002	-1.0761515E-002	1.090891344972546E+000	1.1739644E-005
2	0	0	0	1.220809969159745E+001	-1.5671708E-002	-1.5744498E-002	1.091496236377265E+000	1.7185061E-005
2	0	0	0	1.225819969033182E+001	-2.0682789E-002	-2.0746658E-002	1.089967458981469E+000	2.2613181E-005
2	0	0	0	1.230819968906872E+001	-2.5684182E-002	-2.5753452E-002	1.090529572522551E+000	2.8084900E-005
2	0	0	0	1.235819968780561E+001	-3.0681131E-002	-3.0741878E-002	1.088480211817236E+000	3.3461925E-005
2	0	0	1	1.240839968653745E+001	-3.5703529E-002	-3.5768926E-002	1.087808525159428E+000	3.8909744E-005
2	0	0	1	1.245839968527434E+001	-4.0702909E-002	-4.0762778E-002	1.087434907194107E+000	4.4326869E-005
2	0	0	1	1.250839968401124E+001	-4.5702074E-002	-4.5779370E-002	1.085172547355774E+000	4.9678514E-005
2	0	0	0	1.255859968274308E+001	-5.0724473E-002	-5.0784595E-002	1.083286316205719E+000	5.5014258E-005
2	0	0	0	1.260859968147997E+001	-5.5721626E-002	-5.5794869E-002	1.079671497276183E+000	6.0240131E-005
2	0	0	0	1.265859968021687E+001	-6.0722809E-002	-6.0778152E-002	1.077476613043939E+000	6.5487038E-005
2	0	0	1	1.270869967895123E+001	-6.5734148E-002	-6.5795697E-002	1.075669549728287E+000	7.0774426E-005
2	0	0	1	1.275879967768560E+001	-7.0741348E-002	-7.0812613E-002	1.073285816937086E+000	7.6002172E-005
2	0	0	1	1.280879967642250E+001	-7.5743765E-002	-7.5802855E-002	1.070229386004227E+000	8.1126440E-005
2	0	0	0	1.285889967515686E+001	-8.0752879E-002	-8.0818661E-002	1.065134672541687E+000	8.6082757E-005
2	0	0	0	1.290899967389123E+001	-8.5762300E-002	-8.5838281E-002	1.060897432677319E+000	9.1065609E-005
2	0	0	0	1.295899967262812E+001	-9.0764530E-002	-9.0841964E-002	1.058551553730693E+000	9.6160904E-005
2	0	0	1	1.300909967136249E+001	-9.5771573E-002	-9.5830463E-002	1.055314070651983E+000	1.0113123E-004
2	0	0	1	1.305919967009686E+001	-1.0078302E-001	-1.0084882E-001	1.051479833385857E+000	1.0604050E-004
2	0	0	1	1.310919966883375E+001	-1.0578407E-001	-1.0585952E-001	1.047480583766747E+000	1.1088579E-004
2	0	0	1	1.315919966757065E+001	-1.1078159E-001	-1.1085261E-001	1.043934818435175E+000	1.1572291E-004
2	0	0	0	1.320939966630249E+001	-1.1580399E-001	-1.1586075E-001	1.038191451700809E+000	1.2028564E-004
2	0	0	0	1.325939966503938E+001	-1.2080275E-001	-1.2086428E-001	1.034258329233808E+000	1.2500488E-004
2	0	0	0	1.330939966377628E+001	-1.2580249E-001	-1.2586023E-001	1.031079802882459E+000	1.2977194E-004
2	0	0	1	1.335959966250812E+001	-1.3082470E-001	-1.3089049E-001	1.026873592997387E+000	1.3440798E-004
2	0	0	1	1.340959966124501E+001	-1.3582137E-001	-1.3587755E-001	1.021688965257839E+000	1.3882459E-004
2	0	0	1	1.345959965998190E+001	-1.4082311E-001	-1.4088395E-001	1.016499275863946E+000	1.4320844E-004
2	0	0	0	1.350969965871627E+001	-1.4583409E-001	-1.4591248E-001	1.010976767708852E+000	1.4751413E-004
2	0	0	0	1.355979965745064E+001	-1.5084182E-001	-1.5091924E-001	1.007534386440551E+000	1.5205632E-004
2	0	0	0	1.360979965618753E+001	-1.5584412E-001	-1.5592240E-001	1.005054824358432E+000	1.5671056E-004
2	0	0	1	1.365989965492190E+001	-1.6085272E-001	-1.6094288E-001	1.001708029115828E+000	1.6121777E-004
2	0	0	1	1.370999965365627E+001	-1.6586249E-001	-1.6595079E-001	9.969702499789772E-001	1.6544800E-004
2	0	0	1	1.375999965239316E+001	-1.7086494E-001	-1.7095210E-001	9.928655475012107E-001	1.6973245E-004
2	0	0	0	1.381009965112753E+001	-1.7587154E-001	-1.7596400E-001	9.864883095600625E-001	1.7358642E-004
2	0	0	0	1.386019964986190E+001	-1.8088357E-001	-1.8097772E-001	9.828921815033809E-001	1.7788158E-004
2	0	0	0	1.391019964859879E+001	-1.8588382E-001	-1.8597913E-001	9.798609355251280E-001	1.8223368E-004
2	0	0	0	1.396019964733568E+001	-1.9088210E-001	-1.9098510E-001	9.765505309815135E-001	1.8650660E-004
2	0	0	1	1.401039964606753E+001	-1.9590421E-001	-1.9599777E-001	9.714052082065885E-001	1.9039326E-004
2	0	0	1	1.406039964480442E+001	-2.0090252E-001	-2.0100330E-001	9.667232123745722E-001	1.9431455E-004
2	0	0	1	1.411039964354131E+001	-2.0590274E-001	-2.0601723E-001	9.614415474925337E-001	1.9807353E-004
2	0	0	0	1.416049964227568E+001	-2.1091507E-001	-2.1101627E-001	9.575344035546713E-001	2.0205534E-004
2	0	0	0	1.421059964101005E+001	-2.1592137E-001	-2.1602896E-001	9.526446196263301E-001	2.0579883E-004
2	0	0	0	1.426059963974694E+001	-2.2092368E-001	-2.2104897E-001	9.471649364850112E-001	2.0936983E-004
2	0	0	1	1.431069963848131E+001	-2.2593388E-001	-2.2603732E-001	9.427130542687578E-001	2.1308834E-004
2	0	0	1	1.436079963721568E+001	-2.3094207E-001	-2.3104542E-001	9.372573235189456E-001	2.1654902E-004
2	0	0	1	1.441079963595257E+001	-2.3594435E-001	-2.3605232E-001	9.323898186044808E-001	2.2009278E-004
2	0	0	0	1.446089963468694E+001	-2.4095261E-001	-2.4105358E-001	9.270859713598441E-001	2.2347740E-004
2	0	0	0	1.451099963342131E+001	-2.4596310E-001	-2.4605811E-001	9.225564580833352E-001	2.2700250E-004
2	0	0	0	1.456099963215820E+001	-2.5096488E-001	-2.5104573E-001	9.176994318509486E-001	2.3038452E-004
2	0	0	0	1.461099963089509E+001	-2.5596169E-001	-2.5602734E-001	9.133340653256941E-001	2.3383849E-004
2	0	0	1	1.466119962962694E+001	-2.6098365E-001	-2.6106882E-001	9.082548729559177E-001	2.3711703E-004
2	0	0	1	1.471119962836383E+001	-2.6598361E-001	-2.6605487E-001	9.025203811060631E-001	2.4011995E-004
2	0	0	1	1.476119962710072E+001	-2.7098238E-001	-2.7105385E-001	8.970321837968704E-001	2.4314402E-004
2	0	0	0	1.481139962583256E+001	-2.7600461E-001	-2.7607790E-001	8.913082789497828E-001	2.4607053E-004
2	0	0	0	1.486139962456946E+001	-2.8100240E-001	-2.8107893E-001	8.862837309403417E-001	2.4911569E-004
2	0	0	0	1.491139962330635E+001	-2.8600332E-001	-2.8608814E-001	8.817713441948936E-001	2.5226432E-004
2	0	0	1	1.496149962204072E+001	-2.9101506E-001	-2.9108274E-001	8.756700336368421E-001	2.5489242E-004
2	0	0	1	1.501159962077509E+001	-2.9602158E-001	-2.9610607E-001	8.707326150518826E-001	2.5782920E-004
2	0	0	1	1.506159961951198E+001	-3.0102414E-001	-3.0111587E-001	8.659185478370190E-001	2.6074183E-004
2	0	0	0	1.511169961824635E+001	-3.0603352E-001	-3.0611619E-001	8.596076712256888E-001	2.6313984E-004
2	0	0	0	1.516179961698072E+001	-3.1104249E-001	-3.1111661E-001	8.537161701893474E-001	2.6560528E-004
2	0	0	0	1.521179961571761E+001	-3.1604481E-001	-3.1612590E-001	8.476661239758307E-001	2.6796921E-004
2	0	0	1	1.526189961445198E+001	-3.2105246E-001	-3.2114092E-001	8.416725162111405E-001	2.7029548E-004
2	0	0	1	1.531199961318634E+001	-3.2606325E-001	-3.2613394E-001	8.363438387894782E-001	2.7276011E-004
2	0	0	1	1.536199961192324E+001	-3.3106473E-001	-3.3111858E-001	8.301967370013560E-001	2.7489357E-004
2	0	0	1	1.541199961066013E+001	-3.3606198E-001	-3.3612522E-001	8.238311290230511E-001	2.7691043E-004
2	0	0	0	1.546219960939197E+001	-3.4108412E-001	-3.4115061E-001	8.181011349633316E-001	2.7909569E-004
2	0	0	0	1.551219960812887E+001	-3.4608343E-001	-3.4615275E-001	8.120936319815524E-001	2.8110846E-004
2	0	0	0	1.556219960686576E+001	-3.5108289E-001	-3.5116458E-001	8.058669687667051E-001	2.8299194E-004
2	0	0	1	1.561239960559760E+001	-3.5610527E-001	-3.5618770E-001	8.000542954889163E-001	2.8496949E-004
2	0	0	1	1.566239960433450E+001	-3.6110213E-001	-3.6119258E-001	7.941922407189992E-001	2.8685635E-004
2	0	0	1	1.571239960307139E+001	-3.6610353E-001	-3.6618772E-001	7.886854632124276E-001	2.8880694E-004
2	0	0	0	1.576249960180576E+001	-3.7111455E-001	-3.7118435E-001	7.823789437661670E-001	2.9040681E-004
2	0	0	0	1.581259960054012E+001	-3.7612197E-001	-3.7620482E-001	7.752818736389919E-001	2.9166476E-004
2	0	0	0	1.586259959927702E+001	-3.8112456E-001	-3.8120422E-001	7.684612953522310E-001	2.9294068E-004
2	0	0	1	1.591269959801139E+001	-3.8613373E-001	-3.8620371E-001	7.601288714573258E-001	2.9356458E-004
2	0	0	1	1.596279959674575E+001	-3.9114282E-001	-3.9120805E-001	7.529378178249804E-001	2.9455533E-004
2	0	0	1	1.601279959548265E+001	-3.9614555E-001	-3.9622888E-001	7.462885885077686E-001	2.9570109E-004
2	0	0	0	1.606289959421702E+001	-4.0115207E-001	-4.0125313E-001	7.396230334325047E-001	2.9677607E-004
2	0	0	0	1.611299959295138E+001	-4.0616366E-001	-4.0624291E-001	7.329240865959896E-001	2.9774522E-004
2	0	0	0	1.616299959168828E+001	-4.1116464E-001	-4.1124031E-001	7.253604854653730E-001	2.9829747E-004
2	0	0	0	1.621299959042517E+001	-4.1616243E-001	-4.1624862E-001	7.173203051485260E-001	2.9858359E-004
2	0	0	1	1.626319958915701E+001	-4.2118469E-001	-4.2127436E-001	7.094554596743983E-001	2.9887538E-004
2	0	0	1	1.631319958789391E+001	-4.2618343E-001	-4.2626476E-001	7.019620189416376E-001	2.9922166E-004
2	0	0	1	1.636319958663080E+001	-4.3118313E-001	-4.3124872E-001	6.940529088521750E-001	2.9930944E-004
2	0	0	0	1.641339958536264E+001	-4.3620518E-001	-4.3628222E-001	6.865864120191105E-001	2.9954544E-004
2	0	0	0	1.646339958409953E+001	-4.4120204E-001	-4.4128516E-001	6.781772933884849E-001	2.9926957E-004
2	0	0	0	1.651339958283643E+001	-4.4620416E-001	-4.4628721E-001	6.700077990354281E-001	2.9901593E-004
2	0	0	1	1.656349958157080E+001	-4.5121485E-001	-4.5129952E-001	6.612342449826496E-001	2.9841470E-004
2	0	0	1	1.661359958030516E+001	-4.5622227E-001	-4.5631260E-001	6.519500999699055E-001	2.9749304E-004
2	0	0	1	1.666359957904206E+001	-4.6122503E-001	-4.6131438E-001	6.437277831146639E-001	2.9696088E-004
2	0	0	0	1.671369957777642E+001	-4.6623310E-001	-4.6631831E-001	6.346647192358996E-001	2.9595578E-004
2	0	0	0	1.676379957651079E+001	-4.7124317E-001	-4.7131485E-001	6.251875280614820E-001	2.9466016E-004
2	0	0	0	1.681379957524769E+001	-4.7624570E-001	-4.7634029E-001	6.157654491890170E-001	2.9331390E-004
2	0	0	1	1.686389957398205E+001	-4.8125231E-001	-4.8134902E-001	6.069924770219806E-001	2.9217525E-004
2	0	0	1	1.691399957271642E+001	-4.8626402E-001	-4.8636609E-001	5.974910411990404E-001	2.9059939E-004
2	0	0	1	1.696399957145331E+001	-4.9126473E-001	-4.9137282E-001	5.888517922962855E-001	2.8934577E-004
2	0	0	1	1.701399957019021E+001	-4.9626252E-001	-4.9637744E-001	5.795846127893149E-001	2.8769273E-004
2	0	0	0	1.706419956892205E+001	-5.0128496E-001	-5.0138485E-001	5.703296616724551E-001	2.8595465E-004
2	0	0	0	1.711419956765894E+001	-5.0628322E-001	-5.0640130E-001	5.602555979615733E-001	2.8371415E-004
2	0	0	0	1.716419956639584E+001	-5.1128370E-001	-5.1141167E-001	5.497247570260807E-001	2.8113567E-004
2	0	0	1	1.721429956513020E+001	-5.1629579E-001	-5.1641077E-001	5.393073119254002E-001	2.7850410E-004
2	0	0	1	1.726439956386457E+001	-5.2130193E-001	-5.2140635E-001	5.290778146506643E-001	2.7586453E-004
2	0	0	1	1.731439956260147E+001	-5.2630430E-001	-5.2641428E-001	5.192093388936421E-001	2.7331919E-004
2	0	0	0	1.736449956133583E+001	-5.3131413E-001	-5.3141534E-001	5.081041975084588E-001	2.7001437E-004
2	0	0	0	1.741459956007020E+001	-5.3632283E-001	-5.3642780E-001	4.972003133399876E-001	2.6671207E-004
2	0	0	0	1.746459955880709E+001	-5.4132539E-001	-5.4143500E-001	4.859331897774495E-001	2.6310125E-004
2	0	0	1	1.752979955716000E+001	-5.4784441E-001	-5.4790711E-001	4.709427726993898E-001	2.5803290E-004
2	0	0	1	1.759479955551797E+001	-5.5434328E-001	-5.5441779E-001	4.562537129361379E-001	2.5295519E-004
2	0	0	1	1.764479955425486E+001	-5.5934352E-001	-5.5941659E-001	4.444545047393440E-001	2.4863522E-004
2	0	0	0	1.769489955298923E+001	-5.6435537E-001	-5.6442106E-001	4.324743141278607E-001	2.4409761E-004
2	0	0	0	1.774499955172359E+001	-5.6936216E-001	-5.6943220E-001	4.201876982930468E-001	2.3926841E-004
2	0	0	0	1.779499955046049E+001	-5.7436454E-001	-5.7443506E-001	4.081546498768747E-001	2.3445833E-004
2	0	0	1	1.784509954919486E+001	-5.7937443E-001	-5.7942986E-001	3.957263679616343E-001	2.2929568E-004
2	0	0	1	1.789519954792922E+001	-5.8438295E-001	-5.8443773E-001	3.833028584147948E-001	2.2401665E-004
2	0	0	1	1.794519954666612E+001	-5.8938545E-001	-5.8944011E-001	3.704737373973610E-001	2.1837208E-004
2	0	0	0	1.799529954540048E+001	-5.9439272E-001	-5.9445393E-001	3.570034721449655E-001	2.1222212E-004
2	0	0	0	1.804539954413485E+001	-5.9940380E-001	-5.9947163E-001	3.432618493672157E-001	2.0577574E-004
2	0	0	0	1.809539954287175E+001	-6.0440540E-001	-6.0446733E-001	3.295972042315601E-001	1.9923074E-004
2	0	0	0	1.814539954160864E+001	-6.0940260E-001	-6.0947692E-001	3.158242415143317E-001	1.9248758E-004
2	0	0	1	1.819559954034048E+001	-6.1442471E-001	-6.1449909E-001	3.013123654087977E-001	1.8515617E-004
2	0	0	1	1.824559953907738E+001	-6.1942434E-001	-6.1949760E-001	2.871231485616863E-001	1.7787211E-004
2	0	0	1	1.829559953781427E+001	-6.2442285E-001	-6.2449229E-001	2.727898598612044E-001	1.7035517E-004
2	0	0	0	1.834579953654611E+001	-6.2944537E-001	-6.2951690E-001	2.579336832177384E-001	1.6237362E-004
2	0	0	0	1.839579953528300E+001	-6.3444299E-001	-6.3450533E-001	2.429600759363719E-001	1.5415947E-004
2	0	0	0	1.844579953401990E+001	-6.3944417E-001	-6.3950133E-001	2.280624718773834E-001	1.4584625E-004
2	0	0	1	1.849589953275427E+001	-6.4445537E-001	-6.4449656E-001	2.131314667443105E-001	1.3736250E-004
2	0	0	1	1.854599953148863E+001	-6.4946258E-001	-6.4950740E-001	1.978943935591282E-001	1.2853388E-004
2	0	0	1	1.859599953022553E+001	-6.5446520E-001	-6.5451270E-001	1.823485019894242E-001	1.1934941E-004
2	0	0	0	1.864609952895989E+001	-6.5947390E-001	-6.5950894E-001	1.667386023491915E-001	1.0996560E-004
2	0	0	0	1.869619952769426E+001	-6.6448331E-001	-6.6451168E-001	1.509775660421360E-001	1.0032635E-004
2	0	0	0	1.874619952643116E+001	-6.6948581E-001	-6.6952258E-001	1.349751380276063E-001	9.0368900E-005
2	0	0	1	1.879629952516552E+001	-6.7449296E-001	-6.7453295E-001	1.188426575598798E-001	8.0163285E-005
2	0	0	1	1.884639952389989E+001	-6.7950433E-001	-6.7955142E-001	1.024101772209882E-001	6.9592985E-005
2	0	0	1	1.889639952263678E+001	-6.8450564E-001	-6.8452412E-001	8.586440191267058E-002	5.8776255E-005
2	0	0	1	1.894639952137368E+001	-6.8950254E-001	-6.8953174E-001	6.920072622569962E-002	4.7716097E-005
2	0	0	0	1.899659952010552E+001	-6.9452500E-001	-6.9454992E-001	5.242929651860639E-002	3.6414764E-005
2	0	0	0	1.906189951845590E+001	-7.0105642E-001	-7.0108974E-001	3.047321534135551E-002	2.1364458E-005
2	0	0	1	1.912719951680629E+001	-7.0758408E-001	-7.0761889E-001	8.177309557078127E-003	5.7864186E-006
2	0	0	1	1.917719951554318E+001	-7.1258402E-001	-7.1261799E-001	-8.978613384573730E-003	6.3983216E-006
2	0	0	0	1.922739951427502E+001	-7.1760613E-001	-7.1762550E-001	-2.637714258169144E-002	1.8928909E-005
2	0	0	0	1.927739951301191E+001	-7.2260261E-001	-7.2260964E-001	-4.374764253614460E-002	3.1612468E-005
2	0	0	0	1.932739951174881E+001	-7.2760463E-001	-7.2762930E-001	-6.125273054047065E-002	4.4569282E-005
2	0	0	1	1.937749951048318E+001	-7.3261529E-001	-7.3262471E-001	-7.879863039782486E-002	5.7729823E-005
2	0	0	1	1.944279950883356E+001	-7.3914564E-001	-7.3914701E-001	-1.017055250958210E-001	7.5175332E-005
2	0	0	0	1.950819950718142E+001	-7.4568337E-001	-7.4570769E-001	-1.249030233326845E-001	9.3141149E-005
2	0	0	0	1.955819950591831E+001	-7.5068557E-001	-7.5071532E-001	-1.426017270771590E-001	1.0705330E-004
2	0	0	1	1.960829950465268E+001	-7.5569391E-001	-7.5572801E-001	-1.605150334222945E-001	1.2130570E-004
2	0	0	1	1.965839950338705E+001	-7.6070386E-001	-7.6075226E-001	-1.783285683167364E-001	1.3566387E-004
2	0	0	1	1.970839950212394E+001	-7.6570600E-001	-7.6574939E-001	-1.960903364373690E-001	1.5015606E-004
2	0	0	0	1.975849950085831E+001	-7.7071279E-001	-7.7075976E-001	-2.138955755778706E-001	1.6486210E-004
2	0	0	0	1.980859949959267E+001	-7.7572495E-001	-7.7577221E-001	-2.317558696991997E-001	1.7978977E-004
2	0	0	0	1.985859949832957E+001	-7.8072560E-001	-7.8076774E-001	-2.493618325136580E-001	1.9469367E-004
2	0	0	0	1.990859949706646E+001	-7.8572291E-001	-7.8576714E-001	-2.669073089819340E-001	2.0972699E-004
2	0	0	1	1.995879949579830E+001	-7.9074568E-001	-7.9079640E-001	-2.846871927695497E-001	2.2512961E-004
2	0	0	1	2.000879949453520E+001	-7.9574400E-001	-7.9578984E-001	-3.022253886984743E-001	2.4050790E-004
2	0	0	1	2.005879949327209E+001	-8.0074400E-001	-8.0079895E-001	-3.195611334138855E-001	2.5590422E-004
2	0	0	0	2.010899949200393E+001	-8.0576640E-001	-8.0582243E-001	-3.368536020530133E-001	2.7144418E-004
2	0	0	0	2.015899949074083E+001	-8.1076306E-001	-8.1082124E-001	-3.539711759182809E-001	2.8700734E-004
2	0	0	0	2.020899948947772E+001	-8.1576502E-001	-8.1584090E-001	-3.712265975785778E-001	3.0286185E-004
2	0	0	1	2.025909948821209E+001	-8.2077527E-001	-8.2085437E-001	-3.882366892882896E-001	3.1868578E-004
2	0	0	1	2.030919948694645E+001	-8.2578319E-001	-8.2585621E-001	-4.051092906460041E-001	3.3456204E-004
2	0	0	1	2.035919948568335E+001	-8.3078563E-001	-8.3086485E-001	-4.218480891678852E-001	3.5049874E-004
2	0	0	0	2.040929948441772E+001	-8.3579391E-001	-8.3585173E-001	-4.381572216920038E-001	3.6623448E-004
2	0	0	0	2.045939948315208E+001	-8.4080440E-001	-8.4086615E-001	-4.544158639622191E-001	3.8210291E-004
2	0	0	0	2.050939948188898E+001	-8.4580678E-001	-8.4586555E-001	-4.709571815356703E-001	3.9836645E-004
2	0	0	0	2.055939948062587E+001	-8.5080272E-001	-8.5087162E-001	-4.869217477370729E-001	4.1430790E-004
2	0	0	1	2.060959947935771E+001	-8.5582507E-001	-8.5588837E-001	-5.028068962579133E-001	4.3034658E-004
2	0	0	1	2.065959947809461E+001	-8.6082488E-001	-8.6088085E-001	-5.188101097670295E-001	4.4663370E-004
2	0	0	1	2.070959947683150E+001	-8.6582386E-001	-8.6589199E-001	-5.340034811668577E-001	4.6238935E-004
2	0	0	0	2.075979947556334E+001	-8.7084591E-001	-8.7090790E-001	-5.493035889135134E-001	4.7839285E-004
2	0	0	0	2.080979947430023E+001	-8.7584418E-001	-8.7590301E-001	-5.647944893034742E-001	4.9470522E-004
2	0	0	0	2.085979947303713E+001	-8.8084435E-001	-8.8088393E-001	-5.804740160009447E-001	5.1133026E-004
2	0	0	1	2.090989947177150E+001	-8.8585669E-001	-8.8589931E-001	-5.949010245719315E-001	5.2702241E-004
2	0	0	1	2.095999947050586E+001	-8.9086276E-001	-8.9091331E-001	-6.093612944848659E-001	5.4288807E-004
2	0	0	1	2.100999946924276E+001	-8.9586508E-001	-8.9591610E-001	-6.238095851171277E-001	5.5888103E-004
2	0	0	0	2.106009946797712E+001	-9.0087521E-001	-9.0092152E-001	-6.383395137603931E-001	5.7509379E-004
2	0	0	0	2.111019946671149E+001	-9.0588409E-001	-9.0594482E-001	-6.526320493161588E-001	5.9124862E-004
2	0	0	0	2.116019946544839E+001	-9.1088629E-001	-9.1094011E-001	-6.662777575047008E-001	6.0693914E-004
2	0	0	1	2.121029946418275E+001	-9.1589391E-001	-9.1594881E-001	-6.796663853678435E-001	6.2253961E-004
2	0	0	1	2.126039946291712E+001	-9.2090458E-001	-9.2095220E-001	-6.934276583556844E-001	6.3861371E-004
2	0	0	1	2.131039946165401E+001	-9.2590600E-001	-9.2596155E-001	-7.062215728713950E-001	6.5393402E-004
2	0	0	1	2.136039946039091E+001	-9.3090308E-001	-9.3094701E-001	-7.192054867975308E-001	6.6954218E-004
2	0	0	0	2.141059945912275E+001	-9.3592560E-001	-9.3597800E-001	-7.320120990253014E-001	6.8514724E-004
2	0	0	0	2.146059945785964E+001	-9.4092518E-001	-9.4098175E-001	-7.451468473725811E-001	7.0116960E-004
2	0	0	0	2.151059945659654E+001	-9.4592398E-001	-9.4598758E-001	-7.572720344125123E-001	7.1636995E-004
2	0	0	1	2.156079945532838E+001	-9.5094633E-001	-9.5101005E-001	-7.695356837516876E-001	7.3183619E-004
2	0	0	1	2.161079945406527E+001	-9.5594341E-001	-9.5597166E-001	-7.816082037586494E-001	7.4719527E-004
2	0	0	1	2.166079945280217E+001	-9.6094471E-001	-9.6097630E-001	-7.929944060580034E-001	7.6204882E-004
2	0	0	0	2.171089945153653E+001	-9.6595615E-001	-9.6600634E-001	-8.049925830373450E-001	7.7762792E-004
2	0	0	0	2.176099945027090E+001	-9.7096354E-001	-9.7101784E-001	-8.158627505650706E-001	7.9221727E-004
2	0	0	0	2.181099944900780E+001	-9.7596562E-001	-9.7601604E-001	-8.270517293872501E-001	8.0721575E-004
2	0	0	1	2.186109944774216E+001	-9.8097515E-001	-9.8102921E-001	-8.383513976896388E-001	8.2244724E-004
2	0	0	1	2.191119944647653E+001	-9.8598397E-001	-9.8604101E-001	-8.488961414907066E-001	8.3704642E-004
2	0	0	1	2.196119944521342E+001	-9.9098617E-001	-9.9103415E-001	-8.595975609758948E-001	8.5189054E-004
2	0	0	0	2.201129944394779E+001	-9.9599367E-001	-9.9603122E-001	-8.697102740114522E-001	8.6625858E-004
2	0	0	0	2.204379944312677E+001	-9.9924600E-001	-9.9927402E-001	-8.773580385076567E-001	8.7672111E-004
2	0	0	0	2.205139944293478E+001	-1.0000215E+000	-1.0000951E+000	-8.792889714241028E-001	8.7937264E-004