EC-Lab ASCII FILE
Nb header lines : 55                          

I-V Characterization

Run on channel : 1 (SN 6514)
User : 
CE vs. WE compliance from -10 V to 10 V
Electrode connection : standard
Ewe ctrl range : min = -1.10 V, max = 0.20 V
Safety Limits :
	Do not start on E overload
Acquisition started on : 06/15/2016 19:38:12
Saved on :
	File : B125-G54-UN-G-D1GB-C16 FW2 100mVs_01_IVC_C01.mpr
	Directory : E:\EC-Lab measurements\B125-G54-UN-G-D1GB\
	Host : 10.0.2.15
Device : VSP (SN 0295)
Address : USB
EC-Lab for windows v11.01 (software)
Internet server v11.00 (firmware)
Command interpretor v11.00 (firmware)
Electrode material : 
Initial state : 
Electrolyte : 
Comments : 
Electrode surface area : 0.001 cm²
Characteristic mass : 0.001 g
Equivalent Weight : 0.000 g/eq.
Density : 0.000 g/cm3
tR (h:m:s)          0:00:0.0000         
dER/dt (mV/h)       0.0                 
dER (mV)            0                   
dtR (s)             0.0000              
dE/dt               100.000             
dE/dt unit          mV/s                
Ei (V)              0.100               
vs.                 Ref                 
EL (V)              -1.000              
vs.                 Ref                 
record              <I>                 
dI                  0.000               
unit dI             µA                  
tI (s)              0.1000              
step percent        100                 
N                   100                 
E range min (V)     -1.100              
E range max (V)     0.200               
I Range             Auto                
I Range min         Unset               
I Range max         Unset               
I Range init        Unset               
Bandwidth           5                   

mode	ox/red	error	control changes	time/s	control/V	Ewe/V	<I>/mA	P/W
2	0	0	0	1.405999964481452E-001	9.0986043E-002	9.0922594E-002	1.139138102531433E+000	1.0357339E-004
2	0	0	0	1.657999958115397E-001	8.8457718E-002	8.8382803E-002	1.133965836405411E+000	1.0022308E-004
2	0	0	0	2.157999945484335E-001	8.3457522E-002	8.3389550E-002	1.131710271084110E+000	9.4372808E-005
2	0	0	1	2.658999932828010E-001	7.8445293E-002	7.8374974E-002	1.130098553114262E+000	8.8571447E-005
2	0	0	1	3.159999920171686E-001	7.3439077E-002	7.3361151E-002	1.129312506387786E+000	8.2847662E-005
2	0	0	1	3.659999907540623E-001	6.8436660E-002	6.8359844E-002	1.127172794019046E+000	7.7053359E-005
2	0	0	0	4.160999894884299E-001	6.3426659E-002	6.3359737E-002	1.126755943461851E+000	7.1390961E-005
2	0	0	0	4.661999882227974E-001	5.8418199E-002	5.8348853E-002	1.125924333654016E+000	6.5696397E-005
2	0	0	0	5.161999869596912E-001	5.3415783E-002	5.3343154E-002	1.124010324903450E+000	5.9958256E-005
2	0	0	1	5.662999856940587E-001	4.8407972E-002	4.8323371E-002	1.120445512487178E+000	5.4143704E-005
2	0	0	1	6.163999844284263E-001	4.3397516E-002	4.3306395E-002	1.118952613397800E+000	4.8457805E-005
2	0	0	1	6.663999831653200E-001	3.8395520E-002	3.8312647E-002	1.117343548847427E+000	4.2808391E-005
2	0	0	1	7.163999819022138E-001	3.3398978E-002	3.3306483E-002	1.116806291482845E+000	3.7196889E-005
2	0	0	0	7.665999806340551E-001	2.8376622E-002	2.8302351E-002	1.116018542398718E+000	3.1585947E-005
2	0	0	0	8.165999793709489E-001	2.3376852E-002	2.3304548E-002	1.115461597269187E+000	2.5995329E-005
2	0	0	0	8.665999781078426E-001	1.8378114E-002	1.8298669E-002	1.113940465580427E+000	2.0383628E-005
2	0	0	1	9.167999768396840E-001	1.3355742E-002	1.3264938E-002	1.111035945287351E+000	1.4737823E-005
2	0	0	1	9.667999755765777E-001	8.3582066E-003	8.2739880E-003	1.107001552700654E+000	9.1593174E-006
2	0	0	1	1.016799974313471E+000	3.3574379E-003	3.2696011E-003	1.104142907272758E+000	3.6101069E-006
2	0	0	0	1.066899973047839E+000	-1.6542346E-003	-1.7438094E-003	1.101845049116761E+000	1.9214078E-006
2	0	0	0	1.116999971782207E+000	-6.6610798E-003	-6.7642657E-003	1.096160265430253E+000	7.4147192E-006
2	0	0	0	1.166999970519100E+000	-1.1663484E-002	-1.1762861E-002	1.090715266284750E+000	1.2829933E-005
2	0	0	1	1.217099969253468E+000	-1.6672954E-002	-1.6745141E-002	1.085342663379258E+000	1.8174216E-005
2	0	0	1	1.267199967987835E+000	-2.1682022E-002	-2.1734757E-002	1.079720386479863E+000	2.3467461E-005
2	0	0	1	1.317199966724729E+000	-2.6684223E-002	-2.6748318E-002	1.072799356869613E+000	2.8695578E-005
2	0	0	0	1.367299965459097E+000	-3.1691670E-002	-3.1757716E-002	1.065697885648518E+000	3.3844131E-005
2	0	0	0	1.417399964193464E+000	-3.6702763E-002	-3.6780816E-002	1.057009116585645E+000	3.8877657E-005
2	0	0	0	1.467399962930358E+000	-4.1704159E-002	-4.1778687E-002	1.048417574181538E+000	4.3801509E-005
2	0	0	0	1.517399961667252E+000	-4.6701290E-002	-4.6787266E-002	1.040005566100111E+000	4.8659018E-005
2	0	0	1	1.567599960399093E+000	-5.1723674E-002	-5.1795900E-002	1.029261244478473E+000	5.3311513E-005
2	0	0	1	1.617599959135987E+000	-5.6722876E-002	-5.6794506E-002	1.019472944979276E+000	5.7900463E-005
2	0	0	1	1.667599957872881E+000	-6.1722010E-002	-6.1805531E-002	1.009960447351713E+000	6.2421139E-005
2	0	0	0	1.717799956604722E+000	-6.6744439E-002	-6.6816248E-002	1.001306035423866E+000	6.6903514E-005
2	0	0	0	1.767799955341616E+000	-7.1741588E-002	-7.1804918E-002	9.908858848984963E-001	7.1150484E-005
2	0	0	0	1.817799954078509E+000	-7.6742962E-002	-7.6805726E-002	9.817237168436721E-001	7.5402000E-005
2	0	0	1	1.867899952812877E+000	-8.1754126E-002	-8.1827350E-002	9.722119192746952E-001	7.9553523E-005
2	0	0	1	1.917999951547245E+000	-8.6761527E-002	-8.6838543E-002	9.630274315181993E-001	8.3627900E-005
2	0	0	1	1.967999950284138E+000	-9.1763750E-002	-9.1827556E-002	9.533824552187493E-001	8.7546781E-005
2	0	0	0	2.018099949018506E+000	-9.6772864E-002	-9.6832596E-002	9.433532712984913E-001	9.1347349E-005
2	0	0	0	2.068199947752873E+000	-1.0178225E-001	-1.0184933E-001	9.327677940484902E-001	9.5001771E-005
2	0	0	0	2.118199946489767E+000	-1.0678469E-001	-1.0685952E-001	9.235832955840646E-001	9.8693665E-005
2	0	0	1	2.168299945224135E+000	-1.1179161E-001	-1.1186186E-001	9.129814317191816E-001	1.0212780E-004
2	0	0	1	2.218399943958502E+000	-1.1680326E-001	-1.1685918E-001	9.036278648909946E-001	1.0559722E-004
2	0	0	1	2.268399942695396E+000	-1.2180396E-001	-1.2187529E-001	8.936835889737864E-001	1.0891795E-004
2	0	0	1	2.318399941432290E+000	-1.2680176E-001	-1.2687065E-001	8.849227170892604E-001	1.1227072E-004
2	0	0	0	2.368599940164131E+000	-1.3182393E-001	-1.3189925E-001	8.752834242512089E-001	1.1544923E-004
2	0	0	0	2.418599938901025E+000	-1.3682267E-001	-1.3688506E-001	8.656785792226316E-001	1.1849846E-004
2	0	0	0	2.468599937637919E+000	-1.4182238E-001	-1.4189905E-001	8.566452268050001E-001	1.2155715E-004
2	0	0	1	2.518799936369760E+000	-1.4684495E-001	-1.4691837E-001	8.463489677286553E-001	1.2434421E-004
2	0	0	1	2.568799935106654E+000	-1.5184142E-001	-1.5191399E-001	8.365864451181189E-001	1.2708918E-004
2	0	0	1	2.618799933843547E+000	-1.5684333E-001	-1.5692236E-001	8.274461281143690E-001	1.2984479E-004
2	0	0	0	2.668899932577915E+000	-1.6185392E-001	-1.6194135E-001	8.179561431936553E-001	1.3246092E-004
2	0	0	0	2.718999931312283E+000	-1.6686167E-001	-1.6693988E-001	8.095409007907826E-001	1.3514467E-004
2	0	0	0	2.768999930049176E+000	-1.7186412E-001	-1.7196195E-001	8.009769069215693E-001	1.3773754E-004
2	0	0	1	2.819099928783544E+000	-1.7687280E-001	-1.7696707E-001	7.916673659953659E-001	1.4009906E-004
2	0	0	1	2.869199927517911E+000	-1.8188283E-001	-1.8198057E-001	7.828354723081992E-001	1.4246083E-004
2	0	0	1	2.919199926254805E+000	-1.8688504E-001	-1.8698938E-001	7.743704923815591E-001	1.4479907E-004
2	0	0	0	2.969299924989173E+000	-1.9189146E-001	-1.9199245E-001	7.656492221668199E-001	1.4699886E-004
2	0	0	0	3.019399923723540E+000	-1.9690342E-001	-1.9701736E-001	7.567101148700874E-001	1.4908503E-004
2	0	0	0	3.069399922460434E+000	-2.0190381E-001	-2.0202488E-001	7.479150017269234E-001	1.5109744E-004
2	0	0	0	3.119399921197328E+000	-2.0690210E-001	-2.0701362E-001	7.399350429471523E-001	1.5317663E-004
2	0	0	1	3.169599919929169E+000	-2.1192448E-001	-2.1202929E-001	7.313094715761845E-001	1.5505902E-004
2	0	0	1	3.219599918666063E+000	-2.1692258E-001	-2.1702532E-001	7.230200341775141E-001	1.5691365E-004
2	0	0	1	3.269599917402957E+000	-2.2192304E-001	-2.2202606E-001	7.147300663029981E-001	1.5868871E-004
2	0	0	0	3.319699916137324E+000	-2.2693516E-001	-2.2705495E-001	7.063113002445389E-001	1.6037148E-004
2	0	0	0	3.369799914871692E+000	-2.3194136E-001	-2.3203941E-001	6.972346319623061E-001	1.6178591E-004
2	0	0	0	3.419799913608585E+000	-2.3694365E-001	-2.3705034E-001	6.885630440030299E-001	1.6322410E-004
2	0	0	1	3.469899912342953E+000	-2.4195378E-001	-2.4207382E-001	6.802058684838990E-001	1.6466003E-004
2	0	0	1	3.519999911077321E+000	-2.4696228E-001	-2.4704240E-001	6.719594281079289E-001	1.6600247E-004
2	0	0	1	3.569999909814214E+000	-2.5196451E-001	-2.5204235E-001	6.645263451779443E-001	1.6748879E-004
2	0	0	0	3.620099908548582E+000	-2.5697258E-001	-2.5707081E-001	6.564480537010189E-001	1.6875363E-004
2	0	0	0	3.670199907282949E+000	-2.6198277E-001	-2.6206610E-001	6.480200032954659E-001	1.6982407E-004
2	0	0	0	3.720199906019843E+000	-2.6698482E-001	-2.6706174E-001	6.402901492337731E-001	1.7099699E-004
2	0	0	0	3.770199904756737E+000	-2.7198160E-001	-2.7205056E-001	6.324382018813104E-001	1.7205517E-004
2	0	0	1	3.820399903488578E+000	-2.7700394E-001	-2.7708232E-001	6.237809083606740E-001	1.7283867E-004
2	0	0	1	3.870399902225472E+000	-2.8200358E-001	-2.8208506E-001	6.157114661997589E-001	1.7368300E-004
2	0	0	1	3.920399900962366E+000	-2.8700259E-001	-2.8708631E-001	6.078170394654618E-001	1.7449594E-004
2	0	0	0	3.970599899694207E+000	-2.9202491E-001	-2.9210526E-001	5.990661895343905E-001	1.7499039E-004
2	0	0	0	4.020599898431101E+000	-2.9702225E-001	-2.9709834E-001	5.915204797826412E-001	1.7573975E-004
2	0	0	0	4.070599897167995E+000	-3.0202338E-001	-3.0211470E-001	5.835099125466359E-001	1.7628692E-004
2	0	0	1	4.120699895902362E+000	-3.0703473E-001	-3.0712712E-001	5.762808289856272E-001	1.7699147E-004
2	0	0	1	4.170799894636730E+000	-3.1204167E-001	-3.1212926E-001	5.684294186035590E-001	1.7742346E-004
2	0	0	1	4.220799893373623E+000	-3.1704408E-001	-3.1713691E-001	5.598101673077625E-001	1.7753647E-004
2	0	0	0	4.270899892107991E+000	-3.2205373E-001	-3.2215464E-001	5.512870523839002E-001	1.7759968E-004
2	0	0	0	4.320999890842359E+000	-3.2706249E-001	-3.2713628E-001	5.434141758502768E-001	1.7777049E-004
2	0	0	0	4.370999889579252E+000	-3.3206505E-001	-3.3212700E-001	5.349593620978350E-001	1.7767445E-004
2	0	0	1	4.421099888313620E+000	-3.3707228E-001	-3.3714819E-001	5.271277423607530E-001	1.7772017E-004
2	0	0	1	4.471199887047987E+000	-3.4208342E-001	-3.4214041E-001	5.194266027378589E-001	1.7771682E-004
2	0	0	1	4.521199885784881E+000	-3.4708473E-001	-3.4716159E-001	5.112992543260991E-001	1.7750346E-004
2	0	0	1	4.571199884521775E+000	-3.5208210E-001	-3.5215735E-001	5.033786262422244E-001	1.7726849E-004
2	0	0	0	4.621399883253616E+000	-3.5710430E-001	-3.5719541E-001	4.954297489050754E-001	1.7696523E-004
2	0	0	0	4.671399881990510E+000	-3.6210340E-001	-3.6219484E-001	4.875834280033925E-001	1.7660020E-004
2	0	0	0	4.721399880727404E+000	-3.6710271E-001	-3.6718705E-001	4.790431423815722E-001	1.7589844E-004
2	0	0	1	4.786599879080313E+000	-3.7362370E-001	-3.7366956E-001	4.692361473633060E-001	1.7533927E-004
2	0	0	1	4.851599877438275E+000	-3.8012516E-001	-3.8016725E-001	4.568677377833641E-001	1.7368614E-004
2	0	0	0	4.901699876172643E+000	-3.8513246E-001	-3.8517243E-001	4.489613186430554E-001	1.7292752E-004
2	0	0	0	4.951799874907010E+000	-3.9014366E-001	-3.9019921E-001	4.402197081247108E-001	1.7177338E-004
2	0	0	0	5.001799873643904E+000	-3.9514473E-001	-3.9518753E-001	4.310778697889486E-001	1.7035659E-004
2	0	0	0	5.051799872380798E+000	-4.0014228E-001	-4.0019673E-001	4.227058474454619E-001	1.6916551E-004
2	0	0	1	5.101999871112639E+000	-4.0516430E-001	-4.0521374E-001	4.141963516971980E-001	1.6783805E-004
2	0	0	1	5.151999869849533E+000	-4.1016334E-001	-4.1019258E-001	4.054684100357551E-001	1.6632013E-004
2	0	0	1	5.201999868586427E+000	-4.1516322E-001	-4.1520503E-001	3.970382279498623E-001	1.6485227E-004
2	0	0	0	5.252199867318268E+000	-4.2018560E-001	-4.2021468E-001	3.883450843562199E-001	1.6318831E-004
2	0	0	0	5.302199866055162E+000	-4.2518201E-001	-4.2521134E-001	3.798829526700045E-001	1.6153054E-004
2	0	0	0	5.352199864792055E+000	-4.3018401E-001	-4.3021390E-001	3.704992672365979E-001	1.5939394E-004
2	0	0	1	5.402299863526423E+000	-4.3519440E-001	-4.3523842E-001	3.620198513528905E-001	1.5756495E-004
2	0	0	1	5.452399862260791E+000	-4.4020227E-001	-4.4023985E-001	3.529813183352397E-001	1.5539644E-004
2	0	0	1	5.502399860997684E+000	-4.4520485E-001	-4.4524243E-001	3.440900766196942E-001	1.5320351E-004
2	0	0	0	5.552499859732052E+000	-4.5021367E-001	-4.5024210E-001	3.350132103690822E-001	1.5083705E-004
2	0	0	0	5.602599858466419E+000	-4.5522308E-001	-4.5526040E-001	3.258037537466885E-001	1.4832555E-004
2	0	0	0	5.652599857203313E+000	-4.6022582E-001	-4.6026328E-001	3.169359762701367E-001	1.4587399E-004
2	0	0	1	5.702699855937681E+000	-4.6523190E-001	-4.6527722E-001	3.072699385685143E-001	1.4296570E-004
2	0	0	1	5.752799854672048E+000	-4.7024387E-001	-4.7028244E-001	2.978222461294378E-001	1.4006057E-004
2	0	0	1	5.802799853408942E+000	-4.7524452E-001	-4.7528574E-001	2.881159223728855E-001	1.3693739E-004
2	0	0	1	5.852799852145836E+000	-4.8024276E-001	-4.8028445E-001	2.788541964734903E-001	1.3392934E-004
2	0	0	0	5.902999850877677E+000	-4.8526490E-001	-4.8531440E-001	2.694144633417768E-001	1.3075072E-004
2	0	0	0	5.952999849614571E+000	-4.9026337E-001	-4.9030900E-001	2.591020084858284E-001	1.2704005E-004
2	0	0	0	6.002999848351465E+000	-4.9526334E-001	-4.9532932E-001	2.490111858300330E-001	1.2334254E-004
2	0	0	1	6.053099847085832E+000	-5.0027555E-001	-5.0034964E-001	2.384716827104589E-001	1.1931922E-004
2	0	0	1	6.103199845820200E+000	-5.0528193E-001	-5.0534350E-001	2.278156070849571E-001	1.1512513E-004
2	0	0	1	6.153199844557093E+000	-5.1028436E-001	-5.1033980E-001	2.173788739899263E-001	1.1093709E-004
2	0	0	0	6.203299843291461E+000	-5.1529467E-001	-5.1536065E-001	2.065917691520686E-001	1.0646927E-004
2	0	0	0	6.253399842025829E+000	-5.2030259E-001	-5.2036428E-001	1.953979253376057E-001	1.0167810E-004
2	0	0	0	6.303399840762722E+000	-5.2530521E-001	-5.2536255E-001	1.840666666178208E-001	9.6701733E-005
2	0	0	1	6.353499839497090E+000	-5.3031284E-001	-5.3035396E-001	1.730614078026003E-001	9.1783804E-005
2	0	0	1	6.403599838231457E+000	-5.3532356E-001	-5.3539109E-001	1.613993480035996E-001	8.6411776E-005
2	0	0	1	6.453599836968351E+000	-5.4032570E-001	-5.4037833E-001	1.495193067108183E-001	8.0796992E-005
2	0	0	1	6.503599835705245E+000	-5.4532242E-001	-5.4538006E-001	1.379133628502784E-001	7.5215197E-005
2	0	0	0	6.553799834437086E+000	-5.5034423E-001	-5.5039752E-001	1.261125100433205E-001	6.9412010E-005
2	0	0	0	6.603799833173980E+000	-5.5534452E-001	-5.5541533E-001	1.137503941792359E-001	6.3178712E-005
2	0	0	0	6.653799831910874E+000	-5.6034273E-001	-5.6039876E-001	1.012503680239072E-001	5.6740580E-005
2	0	0	1	6.703999830642715E+000	-5.6536514E-001	-5.6541604E-001	8.878100430616542E-002	5.0198203E-005
2	0	0	1	6.753999829379609E+000	-5.7036304E-001	-5.7042986E-001	7.580728711734885E-002	4.3242741E-005
2	0	0	1	6.803999828116503E+000	-5.7536387E-001	-5.7543629E-001	6.247203366504195E-002	3.5948677E-005
2	0	0	0	6.854099826850870E+000	-5.8037561E-001	-5.8041686E-001	4.901367132447187E-002	2.8448361E-005
2	0	0	0	6.919399825201253E+000	-5.8690649E-001	-5.8694100E-001	3.169317126527038E-002	1.8602022E-005
2	0	0	1	6.984799823549110E+000	-5.9344190E-001	-5.9349698E-001	1.367164440250107E-002	8.1140797E-006
2	0	0	1	7.034799822286004E+000	-5.9844452E-001	-5.9849763E-001	-5.730316644107301E-004	3.4295809E-007
2	0	0	0	7.084899821020372E+000	-6.0345435E-001	-6.0351765E-001	-1.487646380886634E-002	8.9782088E-006
2	0	0	0	7.134999819754739E+000	-6.0846335E-001	-6.0851622E-001	-2.944892244493247E-002	1.7920147E-005
2	0	0	0	7.184999818491633E+000	-6.1346543E-001	-6.1352599E-001	-4.417890079906539E-002	2.7104903E-005
2	0	0	1	7.235099817226001E+000	-6.1847323E-001	-6.1852896E-001	-5.927610537716621E-002	3.6663987E-005
2	0	0	1	7.285199815960368E+000	-6.2348378E-001	-6.2355268E-001	-7.487078636893374E-002	4.6685880E-005
2	0	0	1	7.335199814697262E+000	-6.2848526E-001	-6.2855691E-001	-9.047074672703681E-002	5.6866014E-005
2	0	0	1	7.400499813047645E+000	-6.3501227E-001	-6.3508838E-001	-1.109151830512778E-001	7.0440947E-005
2	0	0	0	7.465799811398028E+000	-6.4154261E-001	-6.4158332E-001	-1.321442471686090E-001	8.4781546E-005
2	0	0	1	7.515999810129870E+000	-6.4656466E-001	-6.4660871E-001	-1.488792942966355E-001	9.6266645E-005
2	0	0	1	7.565999808866763E+000	-6.5156442E-001	-6.5162247E-001	-1.657992515808244E-001	1.0803852E-004
2	0	0	1	7.615999807603657E+000	-6.5656316E-001	-6.5659827E-001	-1.827813886301266E-001	1.2001394E-004
2	0	0	0	7.666199806335499E+000	-6.6158545E-001	-6.6162050E-001	-2.003306389998452E-001	1.3254286E-004
2	0	0	0	7.716199805072392E+000	-6.6658300E-001	-6.6662294E-001	-2.178946320249588E-001	1.4525357E-004
2	0	0	0	7.766199803809286E+000	-6.7158419E-001	-6.7163014E-001	-2.359578462633782E-001	1.5847640E-004
2	0	0	1	7.816299802543654E+000	-6.7659545E-001	-6.7664045E-001	-2.542100469089990E-001	1.7200880E-004
2	0	0	1	7.866399801278021E+000	-6.8160295E-001	-6.8163580E-001	-2.727936834356015E-001	1.8594594E-004
2	0	0	1	7.916399800014915E+000	-6.8660510E-001	-6.8663162E-001	-2.915887843148655E-001	2.0021408E-004
2	0	0	0	7.966499798749282E+000	-6.9161403E-001	-6.9165134E-001	-3.108122435587033E-001	2.1497371E-004
2	0	0	0	8.016599797483650E+000	-6.9662356E-001	-6.9666582E-001	-3.301153354702260E-001	2.2998007E-004
2	0	0	0	8.066599796220544E+000	-7.0162582E-001	-7.0165908E-001	-3.498798775679361E-001	2.4549640E-004
2	0	0	1	8.116699794954911E+000	-7.0663297E-001	-7.0665920E-001	-3.697268833499212E-001	2.6127091E-004
2	0	0	1	8.166799793689279E+000	-7.1164453E-001	-7.1168625E-001	-3.900559619062776E-001	2.7759746E-004
2	0	0	1	8.216799792426173E+000	-7.1664578E-001	-7.1666646E-001	-4.105596290416229E-001	2.9423431E-004
2	0	0	1	8.266799791163066E+000	-7.2164249E-001	-7.2166479E-001	-4.314233424355982E-001	3.1134303E-004
2	0	0	0	8.316999789894908E+000	-7.2666526E-001	-7.2668231E-001	-4.526098201511903E-001	3.2890355E-004
2	0	0	0	8.366999788631801E+000	-7.3166406E-001	-7.3168296E-001	-4.738409630032558E-001	3.4670136E-004
2	0	0	0	8.416999787368695E+000	-7.3666382E-001	-7.3668408E-001	-4.953123910306498E-001	3.6488875E-004
2	0	0	1	8.467199786100537E+000	-7.4168605E-001	-7.4170589E-001	-5.173607421328406E-001	3.8372952E-004
2	0	0	1	8.517199784837430E+000	-7.4668312E-001	-7.4670422E-001	-5.393643357338085E-001	4.0274562E-004
2	0	0	1	8.567199783574324E+000	-7.5168473E-001	-7.5173008E-001	-5.614448768378969E-001	4.2205502E-004
2	0	0	0	8.617299782308692E+000	-7.5669539E-001	-7.5672430E-001	-5.840781269234823E-001	4.4198611E-004
2	0	0	0	8.667399781043059E+000	-7.6170301E-001	-7.6173681E-001	-6.068669531373203E-001	4.6227290E-004
2	0	0	0	8.717399779779953E+000	-7.6670527E-001	-7.6675045E-001	-6.297687183860887E-001	4.8287545E-004
2	0	0	1	8.767499778514321E+000	-7.7171409E-001	-7.7177149E-001	-6.527607143886591E-001	5.0378212E-004
2	0	0	1	8.817599777248688E+000	-7.7672416E-001	-7.7677417E-001	-6.764420868671693E-001	5.2544277E-004
2	0	0	1	8.867599775985582E+000	-7.8172642E-001	-7.8176516E-001	-7.003039270967886E-001	5.4747320E-004
2	0	0	0	8.917699774719949E+000	-7.8673261E-001	-7.8677332E-001	-7.240633910673147E-001	5.6967378E-004
2	0	0	0	8.967799773454317E+000	-7.9174495E-001	-7.9180813E-001	-7.481354843181585E-001	5.9237977E-004
2	0	0	0	9.017799772191211E+000	-7.9674500E-001	-7.9680431E-001	-7.725603298101866E-001	6.1557943E-004
2	0	0	0	9.067799770928104E+000	-8.0174321E-001	-8.0178148E-001	-7.969328269173959E-001	6.3896598E-004
2	0	0	1	9.117999769659946E+000	-8.0676574E-001	-8.0682421E-001	-8.217936050996641E-001	6.6304300E-004
2	0	0	1	9.167999768396840E+000	-8.1176430E-001	-8.1180990E-001	-8.466409168963942E-001	6.8731146E-004
2	0	0	1	9.217999767133733E+000	-8.1676412E-001	-8.1682521E-001	-8.712938600713986E-001	7.1169477E-004
2	0	0	0	9.268199765865575E+000	-8.2178664E-001	-8.2184356E-001	-8.968289535290968E-001	7.3705311E-004
2	0	0	0	9.318199764602468E+000	-8.2678270E-001	-8.2686293E-001	-9.220076905574555E-001	7.6237397E-004
2	0	0	0	9.368199763339362E+000	-8.3178490E-001	-8.3186263E-001	-9.474401778944390E-001	7.8814005E-004
2	0	0	1	9.418299762073730E+000	-8.3679521E-001	-8.3685821E-001	-9.726872162766966E-001	8.1400131E-004
2	0	0	1	9.468399760808097E+000	-8.4180385E-001	-8.4185874E-001	-9.982026539412949E-001	8.4034563E-004
2	0	0	1	9.533699759158480E+000	-8.4833515E-001	-8.4838402E-001	-1.033588047846915E+000	8.7687961E-004
2	0	0	0	9.598999757508864E+000	-8.5486603E-001	-8.5497737E-001	-1.066522981440730E+000	9.1185299E-004
2	0	0	1	9.649099756243231E+000	-8.5987371E-001	-8.6000460E-001	-1.092855777259629E+000	9.3986100E-004
2	0	0	1	9.699199754977599E+000	-8.6488444E-001	-8.6500174E-001	-1.119215469201503E+000	9.6812332E-004
2	0	0	1	9.749199753714493E+000	-8.6988658E-001	-8.7001681E-001	-1.145380113902233E+000	9.9649990E-004
2	0	0	1	9.799199752451386E+000	-8.7488312E-001	-8.7500542E-001	-1.171623235184704E+000	1.0251767E-003
2	0	0	0	9.849399751183228E+000	-8.7990528E-001	-8.7999755E-001	-1.198147875343507E+000	1.0543672E-003
2	0	0	0	9.899399749920121E+000	-8.8490546E-001	-8.8499558E-001	-1.224215052938341E+000	1.0834249E-003
2	0	0	0	9.949399748657015E+000	-8.8990355E-001	-8.9001429E-001	-1.250774633863508E+000	1.1132073E-003
2	0	0	1	9.999599747388856E+000	-8.9492571E-001	-8.9502120E-001	-1.276086934007219E+000	1.1421249E-003
2	0	0	1	1.004959974612575E+001	-8.9992392E-001	-9.0002072E-001	-1.302929297866919E+000	1.1726634E-003
2	0	0	1	1.009959974486264E+001	-9.0492475E-001	-9.0502667E-001	-1.329707923750199E+000	1.2034212E-003
2	0	0	0	1.014969974359701E+001	-9.0993655E-001	-9.1003352E-001	-1.355562027699619E+000	1.2336068E-003
2	0	0	0	1.019979974233138E+001	-9.1494310E-001	-9.1504478E-001	-1.382212928645863E+000	1.2647867E-003
2	0	0	0	1.024979974106827E+001	-9.1994548E-001	-9.2004025E-001	-1.408280070024269E+000	1.2956744E-003
2	0	0	1	1.029989973980264E+001	-9.2495477E-001	-9.2506737E-001	-1.434992691125537E+000	1.3274649E-003
2	0	0	1	1.034999973853701E+001	-9.2996365E-001	-9.3008065E-001	-1.462036903021854E+000	1.3598122E-003
2	0	0	1	1.039999973727390E+001	-9.3496621E-001	-9.3508452E-001	-1.488954937338960E+000	1.3922987E-003
2	0	0	0	1.045009973600827E+001	-9.3997407E-001	-9.4007474E-001	-1.514476661276865E+000	1.4237212E-003
2	0	0	0	1.050019973474264E+001	-9.4498456E-001	-9.4510239E-001	-1.541039890757983E+000	1.4564405E-003
2	0	0	0	1.055019973347953E+001	-9.4998652E-001	-9.5008266E-001	-1.567053365594944E+000	1.4888302E-003
2	0	0	0	1.060019973221642E+001	-9.5498276E-001	-9.5505881E-001	-1.594321691938056E+000	1.5226710E-003
2	0	0	1	1.065039973094827E+001	-9.6000528E-001	-9.6007222E-001	-1.620368604210252E+000	1.5556709E-003
2	0	0	1	1.070039972968516E+001	-9.6500510E-001	-9.6511000E-001	-1.646836581171769E+000	1.5893785E-003
2	0	0	1	1.075039972842205E+001	-9.7000420E-001	-9.7010636E-001	-1.673169271646149E+000	1.6231522E-003
2	0	0	0	1.080059972715389E+001	-9.7502637E-001	-9.7512364E-001	-1.699693250856633E+000	1.6574111E-003
2	0	0	0	1.085059972589079E+001	-9.8002398E-001	-9.8013639E-001	-1.726920589698830E+000	1.6926178E-003
2	0	0	0	1.090059972462768E+001	-9.8502481E-001	-9.8514909E-001	-1.753651214135729E+000	1.7276079E-003
2	0	0	1	1.095069972336205E+001	-9.9003601E-001	-9.9012858E-001	-1.780847746701603E+000	1.7632683E-003
2	0	0	1	1.100079972209642E+001	-9.9504322E-001	-9.9513143E-001	-1.807853040509439E+000	1.7990514E-003
2	0	0	1	1.103799972115667E+001	-9.9876589E-001	-9.9883181E-001	-1.827078246687430E+000	1.8249438E-003
2	0	0	1	1.105039972084342E+001	-1.0000215E+000	-1.0000379E+000	-1.828430831432343E+000	1.8285002E-003