EC-Lab ASCII FILE
Nb header lines : 55                          

I-V Characterization

Run on channel : 1 (SN 6514)
User : 
CE vs. WE compliance from -10 V to 10 V
Electrode connection : standard
Ewe ctrl range : min = -1.10 V, max = 0.20 V
Safety Limits :
	Do not start on E overload
Acquisition started on : 06/15/2016 19:46:38
Saved on :
	File : B125-G54-UN-G-D1GB-C16 FW 10mVs dark_C01.mpr
	Directory : E:\EC-Lab measurements\B125-G54-UN-G-D1GB\
	Host : 10.0.2.15
Device : VSP (SN 0295)
Address : USB
EC-Lab for windows v11.01 (software)
Internet server v11.00 (firmware)
Command interpretor v11.00 (firmware)
Electrode material : 
Initial state : 
Electrolyte : 
Comments : 
Electrode surface area : 0.001 cm²
Characteristic mass : 0.001 g
Equivalent Weight : 0.000 g/eq.
Density : 0.000 g/cm3
tR (h:m:s)          0:00:0.0000         
dER/dt (mV/h)       0.0                 
dER (mV)            0                   
dtR (s)             0.0000              
dE/dt               10.000              
dE/dt unit          mV/s                
Ei (V)              0.100               
vs.                 Ref                 
EL (V)              -1.000              
vs.                 Ref                 
record              <I>                 
dI                  0.000               
unit dI             µA                  
tI (s)              0.1000              
step percent        100                 
N                   100                 
E range min (V)     -1.100              
E range max (V)     0.200               
I Range             Auto                
I Range min         Unset               
I Range max         Unset               
I Range init        Unset               
Bandwidth           5                   

mode	ox/red	error	control changes	time/s	control/V	Ewe/V	<I>/mA	P/W
2	0	0	0	8.499999785271939E-002	9.9696882E-002	9.9516742E-002	2.411318970844149E-003	2.3996660E-007
2	0	0	1	3.552999910243670E-001	9.6993022E-002	9.6987098E-002	1.795681669561791E-003	1.7415796E-007
2	0	0	1	8.733999779360602E-001	9.1812029E-002	9.1794014E-002	1.373429281565156E-003	1.2607259E-007
2	0	0	0	1.373999965289840E+000	8.6806051E-002	8.6804993E-002	1.195092557516106E-003	1.0374000E-007
2	0	0	1	1.874599952643621E+000	8.1800044E-002	8.1798829E-002	1.067099571167456E-003	8.7287496E-008
2	0	0	0	2.375199939997401E+000	7.6794043E-002	7.6790705E-002	9.565763954882192E-004	7.3456178E-008
2	0	0	0	2.875999927346129E+000	7.1786121E-002	7.1780041E-002	8.626305729703132E-004	6.1919657E-008
2	0	0	1	3.376599914699909E+000	6.6780135E-002	6.6760242E-002	7.776931975006906E-004	5.1918985E-008
2	0	0	0	3.877199902053690E+000	6.1774112E-002	6.1758231E-002	7.008583980976906E-004	4.3283777E-008
2	0	0	1	4.377799889407470E+000	5.6768093E-002	5.6740716E-002	6.253944482009846E-004	3.5485328E-008
2	0	0	0	4.878399876761250E+000	5.1762115E-002	5.1742468E-002	5.531667929934356E-004	2.8622216E-008
2	0	0	1	5.378999864115031E+000	4.6756130E-002	4.6731707E-002	4.856611561295287E-004	2.2695774E-008
2	0	0	0	5.879599851468811E+000	4.1750122E-002	4.1722421E-002	4.220001968711189E-004	1.7606869E-008
2	0	0	1	6.380199838822591E+000	3.6744118E-002	3.6723573E-002	3.617301066008039E-004	1.3284022E-008
2	0	0	0	6.880899826173845E+000	3.1737167E-002	3.1704959E-002	3.042857716851546E-004	9.6473673E-009
2	0	0	0	7.381599813525099E+000	2.6730217E-002	2.6706165E-002	2.500413779099632E-004	6.6776464E-009
2	0	0	1	7.882199800878880E+000	2.1724198E-002	2.1707980E-002	1.951531953258492E-004	4.2363815E-009
2	0	0	0	8.382799788232660E+000	1.6718226E-002	1.6707610E-002	1.408148537085475E-004	2.3526796E-009
2	0	0	1	8.883399775586440E+000	1.1712189E-002	1.1695409E-002	8.888882806878072E-005	1.0395912E-009
2	0	0	0	9.383999762940221E+000	6.7062140E-003	6.6757742E-003	3.818524409910518E-005	2.5491606E-010
2	0	0	1	9.884599750294001E+000	1.6997777E-003	1.6718052E-003	-1.153779802416177E-005	1.9288951E-011
2	0	0	0	1.038519973764778E+001	-3.3057677E-003	-3.3492169E-003	-6.074469282553503E-005	2.0344715E-010
2	0	0	1	1.088579972500156E+001	-8.3118044E-003	-8.3662495E-003	-1.089378923457325E-004	9.1140157E-010
2	0	0	0	1.138649971235282E+001	-1.3318791E-002	-1.3359737E-002	-1.577772539388162E-004	2.1078626E-009
2	0	0	0	1.188719969970407E+001	-1.8325802E-002	-1.8348644E-002	-2.071656743844043E-004	3.8012091E-009
2	0	0	1	1.238779968705785E+001	-2.3331800E-002	-2.3360685E-002	-2.569582417458345E-004	6.0027205E-009
2	0	0	0	1.288839967441163E+001	-2.8337793E-002	-2.8351758E-002	-3.062177964264510E-004	8.6818126E-009
2	0	0	1	1.338899966176541E+001	-3.3343829E-002	-3.3354502E-002	-3.554668514072536E-004	1.1856420E-008
2	0	0	0	1.388959964911919E+001	-3.8349833E-002	-3.8364906E-002	-4.068353250032807E-004	1.5608199E-008
2	0	0	1	1.439019963647297E+001	-4.3355845E-002	-4.3380450E-002	-4.591062967912447E-004	1.9916238E-008
2	0	0	0	1.489079962382675E+001	-4.8361842E-002	-4.8396748E-002	-5.119663392463003E-004	2.4777506E-008
2	0	0	1	1.539139961118053E+001	-5.3367905E-002	-5.3376019E-002	-5.690527796939383E-004	3.0373773E-008
2	0	0	0	1.589209959853179E+001	-5.8374841E-002	-5.8376502E-002	-6.249090119163953E-004	3.6480003E-008
2	0	0	0	1.639279958588304E+001	-6.3381836E-002	-6.3400872E-002	-6.826128642334148E-004	4.3278252E-008
2	0	0	1	1.689339957323682E+001	-6.8387873E-002	-6.8409123E-002	-7.429928556718602E-004	5.0827488E-008
2	0	0	0	1.739399956059060E+001	-7.3393889E-002	-7.3403463E-002	-8.059901309065132E-004	5.9162467E-008
2	0	0	1	1.789459954794438E+001	-7.8399934E-002	-7.8417614E-002	-8.683488576883324E-004	6.8093847E-008
2	0	0	0	1.839519953529816E+001	-8.3405934E-002	-8.3424933E-002	-9.379143396729666E-004	7.8245442E-008
2	0	0	1	1.889579952265194E+001	-8.8411950E-002	-8.8443361E-002	-1.009291778099292E-003	8.9265157E-008
2	0	0	0	1.939639951000572E+001	-9.3417943E-002	-9.3418203E-002	-1.078535032714708E-003	1.0075480E-007
2	0	0	1	1.989699949735950E+001	-9.8423980E-002	-9.8438472E-002	-1.156386999029934E-003	1.1383297E-007
2	0	0	1	2.039779948470823E+001	-1.0343193E-001	-1.0344502E-001	-1.234682619592238E-003	1.2772176E-007
2	0	0	0	2.089839947206201E+001	-1.0843797E-001	-1.0845909E-001	-1.313606018917394E-003	1.4247250E-007
2	0	0	1	2.139899945941579E+001	-1.1344399E-001	-1.1346330E-001	-1.399583942380683E-003	1.5880141E-007
2	0	0	0	2.189959944676957E+001	-1.1844996E-001	-1.1845958E-001	-1.481246742522958E-003	1.7546787E-007
2	0	0	1	2.240019943412335E+001	-1.2345599E-001	-1.2346960E-001	-1.575549300397400E-003	1.9453243E-007
2	0	0	0	2.290079942147713E+001	-1.2846203E-001	-1.2847839E-001	-1.674277880904525E-003	2.1510853E-007
2	0	0	1	2.340139940883091E+001	-1.3346803E-001	-1.3347659E-001	-1.769738992480814E-003	2.3621871E-007
2	0	0	0	2.390199939618469E+001	-1.3847402E-001	-1.3846800E-001	-1.882256463364728E-003	2.6063228E-007
2	0	0	1	2.440269938353595E+001	-1.4348108E-001	-1.4351650E-001	-1.985201953914016E-003	2.8490922E-007
2	0	0	1	2.490339937088720E+001	-1.4848803E-001	-1.4852895E-001	-2.103867337681094E-003	3.1248521E-007
2	0	0	0	2.540399935824098E+001	-1.5349407E-001	-1.5352100E-001	-2.226313940034551E-003	3.4178595E-007
2	0	0	1	2.590459934559476E+001	-1.5850008E-001	-1.5853058E-001	-2.351006844269282E-003	3.7270647E-007
2	0	0	0	2.640519933294854E+001	-1.6350608E-001	-1.6354920E-001	-2.485317205418447E-003	4.0647163E-007
2	0	0	1	2.690579932030232E+001	-1.6851209E-001	-1.6854687E-001	-2.624776560262387E-003	4.4239786E-007
2	0	0	0	2.740639930765610E+001	-1.7351815E-001	-1.7356238E-001	-2.769802360613569E-003	4.8073349E-007
2	0	0	1	2.790699929500988E+001	-1.7852414E-001	-1.7856121E-001	-2.921170445210439E-003	5.2160772E-007
2	0	0	0	2.840759928236366E+001	-1.8353018E-001	-1.8359379E-001	-3.081185099140227E-003	5.6568649E-007
2	0	0	1	2.890829926971492E+001	-1.8853714E-001	-1.8859625E-001	-3.234299121526871E-003	6.0997667E-007
2	0	0	1	2.940899925706617E+001	-1.9354412E-001	-1.9360869E-001	-3.403400764778075E-003	6.5892795E-007
2	0	0	0	2.990959924441995E+001	-1.9855015E-001	-1.9858934E-001	-3.576521036929394E-003	7.1025897E-007
2	0	0	1	3.041019923177373E+001	-2.0355619E-001	-2.0361122E-001	-3.774389215844293E-003	7.6850802E-007
2	0	0	0	3.091079921912751E+001	-2.0856215E-001	-2.0862210E-001	-3.966618086493540E-003	8.2752416E-007
2	0	0	1	3.141139920648129E+001	-2.1356824E-001	-2.1362156E-001	-4.172386104257599E-003	8.9131163E-007
2	0	0	0	3.191199919383507E+001	-2.1857421E-001	-2.1863666E-001	-4.386873382110898E-003	9.5913140E-007
2	0	0	1	3.241259918118885E+001	-2.2358017E-001	-2.2363070E-001	-4.613941985330319E-003	1.0318190E-006
2	0	0	0	3.291319916854263E+001	-2.2858624E-001	-2.2863959E-001	-4.841366667502275E-003	1.1069280E-006
2	0	0	1	3.341389915589389E+001	-2.3359321E-001	-2.3364921E-001	-5.093458071045234E-003	1.1900825E-006
2	0	0	1	3.391459914324514E+001	-2.3860022E-001	-2.3866048E-001	-5.342049908455875E-003	1.2749363E-006
2	0	0	0	3.441519913059892E+001	-2.4360624E-001	-2.4367265E-001	-5.595648421437907E-003	1.3635065E-006
2	0	0	1	3.491579911795270E+001	-2.4861224E-001	-2.4864617E-001	-5.872572989613120E-003	1.4601928E-006
2	0	0	0	3.541639910530648E+001	-2.5361827E-001	-2.5363800E-001	-6.162645641190581E-003	1.5630811E-006
2	0	0	1	3.591699909266026E+001	-2.5862426E-001	-2.5866270E-001	-6.462448131708140E-003	1.6715943E-006
2	0	0	0	3.641759908001404E+001	-2.6363027E-001	-2.6367468E-001	-6.789251719641067E-003	1.7901538E-006
2	0	0	1	3.691819906736782E+001	-2.6863626E-001	-2.6866576E-001	-7.126777356788953E-003	1.9147210E-006
2	0	0	0	3.741879905472160E+001	-2.7364233E-001	-2.7366507E-001	-7.467244467622161E-003	2.0435241E-006
2	0	0	0	3.791959904207033E+001	-2.7865031E-001	-2.7866623E-001	-7.825220763085575E-003	2.1806247E-006
2	0	0	1	3.842019902942411E+001	-2.8365627E-001	-2.8369775E-001	-8.210137579449786E-003	2.3291975E-006
2	0	0	0	3.892079901677789E+001	-2.8866231E-001	-2.8869802E-001	-8.609372256293470E-003	2.4855087E-006
2	0	0	1	3.942139900413167E+001	-2.9366833E-001	-2.9369518E-001	-9.021402519656524E-003	2.6495425E-006
2	0	0	0	3.992199899148545E+001	-2.9867443E-001	-2.9870537E-001	-9.449543625380238E-003	2.8226293E-006
2	0	0	1	4.042259897883923E+001	-3.0368048E-001	-3.0372837E-001	-9.903920308554609E-003	3.0081017E-006
2	0	0	0	4.094079896574840E+001	-3.0886254E-001	-3.0890626E-001	-1.039774747122149E-002	3.2119292E-006
2	0	0	1	4.145899895265757E+001	-3.1404439E-001	-3.1407917E-001	-1.094217417431255E-002	3.4367090E-006
2	0	0	0	4.195959894001135E+001	-3.1905046E-001	-3.1908602E-001	-1.146578508229110E-002	3.6585716E-006
2	0	0	1	4.246019892736513E+001	-3.2405648E-001	-3.2409924E-001	-1.199112899116880E-002	3.8863159E-006
2	0	0	0	4.296079891471891E+001	-3.2906246E-001	-3.2907251E-001	-1.258222450199742E-002	4.1404642E-006
2	0	0	1	4.346139890207269E+001	-3.3406851E-001	-3.3407995E-001	-1.318616669954220E-002	4.4052340E-006
2	0	0	0	4.396199888942647E+001	-3.3907452E-001	-3.3910236E-001	-1.381560972774980E-002	4.6849059E-006
2	0	0	1	4.446259887678025E+001	-3.4408048E-001	-3.4410253E-001	-1.444583510760936E-002	4.9708483E-006
2	0	0	0	4.496319886413403E+001	-3.4908655E-001	-3.4912604E-001	-1.509036438348746E-002	5.2684391E-006
2	0	0	1	4.546389885148528E+001	-3.5409343E-001	-3.5411817E-001	-1.579093195256637E-002	5.5918558E-006
2	0	0	1	4.596459883883654E+001	-3.5910046E-001	-3.5914502E-001	-1.650798366686004E-002	5.9287599E-006
2	0	0	0	4.646519882619032E+001	-3.6410645E-001	-3.6414018E-001	-1.726955999716306E-002	6.2885406E-006
2	0	0	1	4.696579881354410E+001	-3.6911249E-001	-3.6915806E-001	-1.805607999180056E-002	6.6655475E-006
2	0	0	0	4.746639880089788E+001	-3.7411854E-001	-3.7414649E-001	-1.889909851355742E-002	7.0710312E-006
2	0	0	1	4.796699878825166E+001	-3.7912458E-001	-3.7915924E-001	-1.975830432923120E-002	7.4915438E-006
2	0	0	0	4.846759877560544E+001	-3.8413057E-001	-3.8417497E-001	-2.065002861251869E-002	7.9332240E-006
2	0	0	1	4.896819876295922E+001	-3.8913658E-001	-3.8917956E-001	-2.157219664209670E-002	8.3954583E-006
2	0	0	0	4.946879875031300E+001	-3.9414269E-001	-3.9418128E-001	-2.255384867631666E-002	8.8903053E-006
2	0	0	1	4.996949873766425E+001	-3.9914960E-001	-3.9919546E-001	-2.359502827420856E-002	9.4190282E-006
2	0	0	1	5.047019872501551E+001	-4.0415663E-001	-4.0417904E-001	-2.463863116825588E-002	9.9584186E-006
2	0	0	0	5.097079871236929E+001	-4.0916261E-001	-4.0917975E-001	-2.570409392410467E-002	1.0517595E-005
2	0	0	1	5.147139869972307E+001	-4.1416863E-001	-4.1419578E-001	-2.685201917288582E-002	1.1121993E-005
2	0	0	0	5.197199868707685E+001	-4.1917461E-001	-4.1921574E-001	-2.800685106777323E-002	1.1740913E-005
2	0	0	1	5.247259867443063E+001	-4.2418063E-001	-4.2420772E-001	-2.923484360364539E-002	1.2401646E-005
2	0	0	0	5.297319866178441E+001	-4.2918664E-001	-4.2921636E-001	-3.052932191938375E-002	1.3103684E-005
2	0	0	1	5.347379864913819E+001	-4.3419257E-001	-4.3420786E-001	-3.181956200052483E-002	1.3816304E-005
2	0	0	0	5.397439863649197E+001	-4.3919858E-001	-4.3924260E-001	-3.320785884730093E-002	1.4586306E-005
2	0	0	0	5.447519862384070E+001	-4.4420657E-001	-4.4424045E-001	-3.464484454540784E-002	1.5390642E-005
2	0	0	1	5.497579861119448E+001	-4.4921258E-001	-4.4925091E-001	-3.614555039358092E-002	1.6238422E-005
2	0	0	0	5.547639859854826E+001	-4.5421860E-001	-4.5425615E-001	-3.765596134316174E-002	1.7105453E-005
2	0	0	1	5.597699858590204E+001	-4.5922464E-001	-4.5926630E-001	-3.929215772512673E-002	1.8045565E-005
2	0	0	0	5.647759857325582E+001	-4.6423066E-001	-4.6427718E-001	-4.096763451513841E-002	1.9020337E-005
2	0	0	1	5.697819856060960E+001	-4.6923670E-001	-4.6927109E-001	-4.268138690873535E-002	2.0029142E-005
2	0	0	0	5.747879854796338E+001	-4.7424278E-001	-4.7427654E-001	-4.446450222165702E-002	2.1088470E-005
2	0	0	1	5.797939853531716E+001	-4.7924873E-001	-4.7928798E-001	-4.632816987479982E-002	2.2204535E-005
2	0	0	0	5.848009852266841E+001	-4.8425573E-001	-4.8428980E-001	-4.823129816189331E-002	2.3357925E-005
2	0	0	0	5.898079851001967E+001	-4.8926270E-001	-4.8931974E-001	-5.020777835924964E-002	2.4567657E-005
2	0	0	1	5.948139849737345E+001	-4.9426869E-001	-4.9431854E-001	-5.224199615404494E-002	2.5824187E-005
2	0	0	0	5.998199848472723E+001	-4.9927470E-001	-4.9932355E-001	-5.441016739676038E-002	2.7168278E-005
2	0	0	1	6.048259847208101E+001	-5.0428069E-001	-5.0433171E-001	-5.662418109137290E-002	2.8557370E-005
2	0	0	0	6.098319845943479E+001	-5.0928670E-001	-5.0932825E-001	-5.885413418092966E-002	2.9976072E-005
2	0	0	1	6.148379844678857E+001	-5.1429272E-001	-5.1435757E-001	-6.122114836286396E-002	3.1489562E-005
2	0	0	0	6.198439843414235E+001	-5.1929873E-001	-5.1936150E-001	-6.368159199198642E-002	3.3073768E-005
2	0	0	1	6.248499842149613E+001	-5.2430475E-001	-5.2436203E-001	-6.624270436997248E-002	3.4735160E-005
2	0	0	0	6.298569840884738E+001	-5.2931178E-001	-5.2936417E-001	-6.886361414047193E-002	3.6453930E-005
2	0	0	0	6.348639839619864E+001	-5.3431880E-001	-5.3436911E-001	-7.157885013704357E-002	3.8249527E-005
2	0	0	1	6.398699838355242E+001	-5.3932476E-001	-5.3937972E-001	-7.430620664814658E-002	4.0079260E-005
2	0	0	0	6.448759837090620E+001	-5.4433078E-001	-5.4438394E-001	-7.719999910496367E-002	4.2026440E-005
2	0	0	1	6.498819835825998E+001	-5.4933679E-001	-5.4938477E-001	-8.015521167525574E-002	4.4036053E-005
2	0	0	0	6.548879834561376E+001	-5.5434281E-001	-5.5441922E-001	-8.317976734792931E-002	4.6116460E-005
2	0	0	1	6.598939833296754E+001	-5.5934888E-001	-5.5941480E-001	-8.634166862651660E-002	4.8300808E-005
2	0	0	0	6.648999832032132E+001	-5.6435496E-001	-5.6441724E-001	-8.963360228973638E-002	5.0590752E-005
2	0	0	1	6.699059830767510E+001	-5.6936103E-001	-5.6943017E-001	-9.299128031493376E-002	5.2952040E-005
2	0	0	0	6.749129829502635E+001	-5.7436800E-001	-5.7443523E-001	-9.645763669781682E-002	5.5408666E-005
2	0	0	0	6.799199828237761E+001	-5.7937503E-001	-5.7942903E-001	-1.000546834269731E-001	5.7974587E-005
2	0	0	1	6.851009826928930E+001	-5.8455586E-001	-5.8461124E-001	-1.038970974736857E-001	6.0739410E-005
2	0	0	1	6.902819825620099E+001	-5.8973700E-001	-5.8979368E-001	-1.078508659227361E-001	6.3609761E-005
2	0	0	0	6.952879824355477E+001	-5.9474301E-001	-5.9480864E-001	-1.118061101013481E-001	6.6503242E-005
2	0	0	1	7.002939823090856E+001	-5.9974909E-001	-5.9981316E-001	-1.158720608175123E-001	6.9501584E-005
2	0	0	0	7.052999821826234E+001	-6.0475498E-001	-6.0481614E-001	-1.199947560526680E-001	7.2574767E-005
2	0	0	0	7.103079820561106E+001	-6.0976303E-001	-6.0982722E-001	-1.242823940148889E-001	7.5790784E-005
2	0	0	1	7.153139819296484E+001	-6.1476904E-001	-6.1483538E-001	-1.286045315936649E-001	7.9070618E-005
2	0	0	0	7.203199818031862E+001	-6.1977512E-001	-6.1983496E-001	-1.331855984657773E-001	8.2553088E-005
2	0	0	1	7.253259816767240E+001	-6.2478101E-001	-6.2484097E-001	-1.378897516544835E-001	8.6159169E-005
2	0	0	0	7.303319815502618E+001	-6.2978709E-001	-6.2985462E-001	-1.426662524057127E-001	8.9859001E-005
2	0	0	1	7.353379814237996E+001	-6.3479304E-001	-6.3486195E-001	-1.477070002292837E-001	9.3773553E-005
2	0	0	0	7.403439812973375E+001	-6.3979918E-001	-6.3984728E-001	-1.528225508943879E-001	9.7783093E-005
2	0	0	1	7.453499811708753E+001	-6.4480507E-001	-6.4485383E-001	-1.580717508773333E-001	1.0193318E-004
2	0	0	0	7.503569810443878E+001	-6.4981216E-001	-6.4986086E-001	-1.634862395247527E-001	1.0624331E-004
2	0	0	0	7.553639809179003E+001	-6.5481925E-001	-6.5485924E-001	-1.689731447663407E-001	1.1065363E-004
2	0	0	1	7.603699807914381E+001	-6.5982527E-001	-6.5987730E-001	-1.745746652005402E-001	1.1519786E-004
2	0	0	0	7.653759806649759E+001	-6.6483134E-001	-6.6486758E-001	-1.804030132874703E-001	1.1994412E-004
2	0	0	1	7.703819805385137E+001	-6.6983724E-001	-6.6988546E-001	-1.864588201568198E-001	1.2490606E-004
2	0	0	0	7.753879804120515E+001	-6.7484331E-001	-6.7488354E-001	-1.926158168564540E-001	1.2999325E-004
2	0	0	1	7.803939802855894E+001	-6.7984915E-001	-6.7987967E-001	-1.989114850905358E-001	1.3523587E-004
2	0	0	0	7.853999801591272E+001	-6.8485528E-001	-6.8488371E-001	-2.052728805557458E-001	1.4058805E-004
2	0	0	1	7.904059800326650E+001	-6.8986112E-001	-6.8990248E-001	-2.118613285626423E-001	1.4616366E-004
2	0	0	0	7.954129799061775E+001	-6.9486821E-001	-6.9490582E-001	-2.187266990079548E-001	1.5199445E-004
2	0	0	0	8.004199797796900E+001	-6.9987518E-001	-6.9991314E-001	-2.257136987017248E-001	1.5797999E-004
2	0	0	1	8.054259796532278E+001	-7.0488125E-001	-7.0492148E-001	-2.327899911146016E-001	1.6409866E-004
2	0	0	0	8.104319795267656E+001	-7.0988727E-001	-7.0993513E-001	-2.401897115523637E-001	1.7051911E-004
2	0	0	1	8.154379794003034E+001	-7.1489334E-001	-7.1493596E-001	-2.475401335207430E-001	1.7697534E-004
2	0	0	0	8.204439792738413E+001	-7.1989918E-001	-7.1992350E-001	-2.553172898159346E-001	1.8380892E-004
2	0	0	1	8.254499791473791E+001	-7.2490543E-001	-7.2492665E-001	-2.631544861807953E-001	1.9076771E-004
2	0	0	0	8.304559790209169E+001	-7.2991127E-001	-7.2992939E-001	-2.711294586055785E-001	1.9790536E-004
2	0	0	1	8.354619788944547E+001	-7.3491734E-001	-7.3494262E-001	-2.793213376109591E-001	2.0528515E-004
2	0	0	0	8.404689787679672E+001	-7.3992437E-001	-7.3994184E-001	-2.877570667305482E-001	2.1292349E-004
2	0	0	0	8.454759786414797E+001	-7.4493140E-001	-7.4494350E-001	-2.963947069812186E-001	2.2079732E-004
2	0	0	1	8.504819785150175E+001	-7.4993753E-001	-7.4996960E-001	-3.052343076212636E-001	2.2891645E-004
2	0	0	0	8.554879783885553E+001	-7.5494331E-001	-7.5496727E-001	-3.140949673483946E-001	2.3713142E-004
2	0	0	1	8.604939782620932E+001	-7.5994945E-001	-7.5999618E-001	-3.233386909766069E-001	2.4573616E-004
2	0	0	0	8.654999781356310E+001	-7.6495528E-001	-7.6499778E-001	-3.326220906327864E-001	2.5445517E-004
2	0	0	1	8.705059780091688E+001	-7.6996148E-001	-7.7000695E-001	-3.422967353671469E-001	2.6357087E-004
2	0	0	0	8.755119778827066E+001	-7.7496719E-001	-7.7500933E-001	-3.520029091367478E-001	2.7280554E-004
2	0	0	1	8.805179777562444E+001	-7.7997345E-001	-7.8001279E-001	-3.619304159720045E-001	2.8231036E-004
2	0	0	1	8.855259776297316E+001	-7.8498131E-001	-7.8502280E-001	-3.722079059114005E-001	2.9219169E-004
2	0	0	0	8.905319775032694E+001	-7.8998744E-001	-7.9003108E-001	-3.826696897764081E-001	3.0232096E-004
2	0	0	1	8.955379773768072E+001	-7.9499322E-001	-7.9504859E-001	-3.932094962405692E-001	3.1262066E-004
2	0	0	0	9.005439772503451E+001	-7.9999948E-001	-8.0004078E-001	-4.040468614348769E-001	3.2325397E-004
2	0	0	1	9.055499771238829E+001	-8.0500537E-001	-8.0506182E-001	-4.151638619248557E-001	3.3423258E-004
2	0	0	0	9.105559769974207E+001	-8.1001151E-001	-8.1007904E-001	-4.265336131132522E-001	3.4552594E-004
2	0	0	1	9.155619768709585E+001	-8.1501752E-001	-8.1508237E-001	-4.380802537746193E-001	3.5707149E-004
2	0	0	0	9.205679767444963E+001	-8.2002354E-001	-8.2007968E-001	-4.496151606474346E-001	3.6872027E-004
2	0	0	1	9.255749766180088E+001	-8.2503062E-001	-8.2508743E-001	-4.617685059946801E-001	3.8099938E-004
2	0	0	1	9.305819764915213E+001	-8.3003747E-001	-8.3010739E-001	-4.740224892658471E-001	3.9348958E-004
2	0	0	0	9.355879763650591E+001	-8.3504367E-001	-8.3509785E-001	-4.864191034872976E-001	4.0620755E-004
2	0	0	1	9.405939762385970E+001	-8.4004945E-001	-8.4009582E-001	-4.990073230160048E-001	4.1921396E-004
2	0	0	0	9.455999761121348E+001	-8.4505558E-001	-8.4510469E-001	-5.119870873705912E-001	4.3268269E-004
2	0	0	1	9.506059759856726E+001	-8.5006136E-001	-8.5012650E-001	-5.248331060389848E-001	4.4617453E-004
2	0	0	0	9.556119758592104E+001	-8.5506761E-001	-8.5512418E-001	-5.381472930355091E-001	4.6018275E-004
2	0	0	1	9.606179757327482E+001	-8.6007327E-001	-8.6013800E-001	-5.516816198905747E-001	4.7452233E-004
2	0	0	0	9.656239756062860E+001	-8.6507964E-001	-8.6513853E-001	-5.655664182771887E-001	4.8929331E-004
2	0	0	1	9.706309754797985E+001	-8.7008631E-001	-8.7016368E-001	-5.795300888237662E-001	5.0428603E-004
2	0	0	1	9.756379753533110E+001	-8.7509364E-001	-8.7514776E-001	-5.941117422703637E-001	5.1993557E-004
2	0	0	0	9.806439752268489E+001	-8.8009942E-001	-8.8012725E-001	-6.084663422158982E-001	5.3552783E-004
2	0	0	1	9.856499751003867E+001	-8.8510561E-001	-8.8515449E-001	-6.231218347556169E-001	5.5155909E-004
2	0	0	0	9.906559749739245E+001	-8.9011151E-001	-8.9015722E-001	-6.382543397158091E-001	5.6814670E-004
2	0	0	1	9.956619748474623E+001	-8.9511770E-001	-8.9515400E-001	-6.536682945707408E-001	5.8513379E-004
2	0	0	0	1.000667974721000E+002	-9.0012366E-001	-9.0017027E-001	-6.691912888434723E-001	6.0238608E-004
2	0	0	1	1.005673974594538E+002	-9.0512955E-001	-9.0517443E-001	-6.847140102256404E-001	6.1978563E-004
2	0	0	0	1.010679974468076E+002	-9.1013569E-001	-9.1018677E-001	-7.009278592906174E-001	6.3797529E-004
2	0	0	0	1.015687974341563E+002	-9.1514361E-001	-9.1518480E-001	-7.172639895286914E-001	6.5642910E-004
2	0	0	1	1.020693974215101E+002	-9.2014980E-001	-9.2018729E-001	-7.336712730666370E-001	6.7511498E-004
2	0	0	0	1.025699974088639E+002	-9.2515552E-001	-9.2522115E-001	-7.502907687597240E-001	6.9418491E-004
2	0	0	1	1.030705973962176E+002	-9.3016171E-001	-9.3021458E-001	-7.670737477724836E-001	7.1354321E-004
2	0	0	0	1.035711973835714E+002	-9.3516749E-001	-9.3522221E-001	-7.845201592281841E-001	7.3370070E-004
2	0	0	1	1.040717973709252E+002	-9.4017375E-001	-9.4021767E-001	-8.019622860196449E-001	7.5401913E-004
2	0	0	0	1.045723973582790E+002	-9.4517946E-001	-9.4524115E-001	-8.196002081412797E-001	7.7471987E-004
2	0	0	1	1.050729973456328E+002	-9.5018578E-001	-9.5023727E-001	-8.374497723502312E-001	7.9577597E-004
2	0	0	0	1.055736973329840E+002	-9.5519245E-001	-9.5521700E-001	-8.559163745327614E-001	8.1758585E-004
2	0	0	0	1.060743973203353E+002	-9.6019965E-001	-9.6022415E-001	-8.745733722309250E-001	8.3978649E-004
2	0	0	1	1.065749973076890E+002	-9.6520543E-001	-9.6525478E-001	-8.931336711987612E-001	8.6210156E-004
2	0	0	0	1.070755972950428E+002	-9.7021180E-001	-9.7026467E-001	-9.119129695603672E-001	8.8479696E-004
2	0	0	1	1.075761972823966E+002	-9.7521764E-001	-9.7527313E-001	-9.314809767255579E-001	9.0844836E-004
2	0	0	0	1.080767972697504E+002	-9.8022366E-001	-9.8027021E-001	-9.508856238943331E-001	9.3212485E-004
2	0	0	1	1.085773972571042E+002	-9.8522967E-001	-9.8528439E-001	-9.709176106308934E-001	9.5662999E-004
2	0	0	0	1.090779972444579E+002	-9.9023563E-001	-9.9027556E-001	-9.909810997159654E-001	9.8134438E-004
2	0	0	1	1.095785972318117E+002	-9.9524182E-001	-9.9526536E-001	-1.011473053609083E+000	1.0066841E-003
2	0	0	0	1.099415972226416E+002	-9.9887049E-001	-9.9891484E-001	-1.026753173446749E+000	1.0256390E-003
2	0	0	0	1.100521972198476E+002	-1.0000215E+000	-9.9996156E-001	-1.031692385673523E+000	1.0316527E-003