EC-Lab ASCII FILE
Nb header lines : 55                          

I-V Characterization

Run on channel : 1 (SN 6514)
User : 
CE vs. WE compliance from -10 V to 10 V
Electrode connection : standard
Ewe ctrl range : min = -1.10 V, max = 0.20 V
Safety Limits :
	Do not start on E overload
Acquisition started on : 06/15/2016 19:19:57
Saved on :
	File : B125-G54-UN-G-D1GB-C15 FW 10mVs dark_C01.mpr
	Directory : E:\EC-Lab measurements\B125-G54-UN-G-D1GB\
	Host : 10.0.2.15
Device : VSP (SN 0295)
Address : USB
EC-Lab for windows v11.01 (software)
Internet server v11.00 (firmware)
Command interpretor v11.00 (firmware)
Electrode material : 
Initial state : 
Electrolyte : 
Comments : 
Electrode surface area : 0.001 cm²
Characteristic mass : 0.001 g
Equivalent Weight : 0.000 g/eq.
Density : 0.000 g/cm3
tR (h:m:s)          0:00:0.0000         
dER/dt (mV/h)       0.0                 
dER (mV)            0                   
dtR (s)             0.0000              
dE/dt               10.000              
dE/dt unit          mV/s                
Ei (V)              0.100               
vs.                 Ref                 
EL (V)              -1.000              
vs.                 Ref                 
record              <I>                 
dI                  0.000               
unit dI             µA                  
tI (s)              0.1000              
step percent        100                 
N                   100                 
E range min (V)     -1.100              
E range max (V)     0.200               
I Range             Auto                
I Range min         Unset               
I Range max         Unset               
I Range init        Unset               
Bandwidth           5                   

mode	ox/red	error	control changes	time/s	control/V	Ewe/V	<I>/mA	P/W
2	0	0	0	8.499999785271939E-002	9.9696882E-002	9.9669531E-002	1.233357610180973E-003	1.2292817E-007
2	0	0	1	3.552999910243670E-001	9.6993022E-002	9.6983075E-002	5.530611541191277E-004	5.3637571E-008
2	0	0	1	8.733999779360602E-001	9.1812029E-002	9.1785476E-002	1.758327157568875E-004	1.6138889E-008
2	0	0	0	1.373999965289840E+000	8.6806051E-002	8.6803123E-002	1.007353353101366E-004	8.7441414E-009
2	0	0	1	1.874599952643621E+000	8.1800044E-002	8.1798725E-002	7.281310345340505E-005	5.9560192E-009
2	0	0	0	2.375199939997401E+000	7.6794043E-002	7.6781467E-002	5.641510921395053E-005	4.3316346E-009
2	0	0	0	2.875999927346129E+000	7.1786121E-002	7.1764655E-002	4.619386787463580E-005	3.3150871E-009
2	0	0	1	3.376599914699909E+000	6.6780135E-002	6.6762030E-002	3.707713350194978E-005	2.4753446E-009
2	0	0	0	3.877199902053690E+000	6.1774112E-002	6.1768644E-002	2.958891581303038E-005	1.8276672E-009
2	0	0	1	4.377799889407470E+000	5.6768093E-002	5.6768347E-002	2.379487908396060E-005	1.3507959E-009
2	0	0	0	4.878399876761250E+000	5.1762115E-002	5.1736388E-002	1.757683464330475E-005	9.0936192E-010
2	0	0	1	5.378999864115031E+000	4.6756130E-002	4.6747033E-002	1.176094429976678E-005	5.4978927E-010
2	0	0	0	5.879599851468811E+000	4.1750122E-002	4.1728199E-002	6.544561700027091E-006	2.7309277E-010
2	0	0	1	6.380199838822591E+000	3.6744118E-002	3.6714129E-002	1.959282769290004E-006	7.1933362E-011
2	0	0	0	6.880899826173845E+000	3.1737167E-002	3.1697541E-002	-2.975725164609694E-006	9.4323174E-011
2	0	0	0	7.381599813525099E+000	2.6730217E-002	2.6717754E-002	-6.936255908417252E-006	1.8532118E-010
2	0	0	1	7.882199800878880E+000	2.1724198E-002	2.1703841E-002	-1.164868048457408E-005	2.5282110E-010
2	0	0	0	8.382799788232660E+000	1.6718226E-002	1.6685890E-002	-1.590443535527328E-005	2.6537966E-010
2	0	0	1	8.883399775586440E+000	1.1712189E-002	1.1690208E-002	-2.008103101421146E-005	2.3475141E-010
2	0	0	0	9.383999762940221E+000	6.7062140E-003	6.6742208E-003	-2.404405605689857E-005	1.6047534E-010
2	0	0	1	9.884599750294001E+000	1.6997777E-003	1.6652083E-003	-2.777776792626299E-005	4.6255770E-011
2	0	0	0	1.038519973764778E+001	-3.3057677E-003	-3.3435414E-003	-3.142308707206238E-005	1.0506439E-010
2	0	0	1	1.088579972500156E+001	-8.3118044E-003	-8.3415145E-003	-3.508602728119492E-005	2.9267061E-010
2	0	0	0	1.138649971235282E+001	-1.3318791E-002	-1.3341960E-002	-3.873632804768791E-005	5.1681853E-010
2	0	0	0	1.188719969970407E+001	-1.8325802E-002	-1.8340118E-002	-4.225181096191002E-005	7.7490320E-010
2	0	0	1	1.238779968705785E+001	-2.3331800E-002	-2.3348549E-002	-4.593687771366325E-005	1.0725595E-009
2	0	0	0	1.288839967441163E+001	-2.8337793E-002	-2.8344713E-002	-4.953499605520284E-005	1.4040552E-009
2	0	0	1	1.338899966176541E+001	-3.3343829E-002	-3.3374958E-002	-5.291722224956953E-005	1.7661100E-009
2	0	0	0	1.388959964911919E+001	-3.8349833E-002	-3.8366508E-002	-5.702593414910393E-005	2.1878859E-009
2	0	0	1	1.439019963647297E+001	-4.3355845E-002	-4.3361474E-002	-6.042274205323231E-005	2.6200191E-009
2	0	0	0	1.489079962382675E+001	-4.8361842E-002	-4.8382249E-002	-6.404652414544070E-005	3.0987148E-009
2	0	0	1	1.539139961118053E+001	-5.3367905E-002	-5.3392816E-002	-6.825792464824204E-005	3.6444829E-009
2	0	0	0	1.589209959853179E+001	-5.8374841E-002	-5.8380131E-002	-7.220235618983191E-005	4.2151829E-009
2	0	0	0	1.639279958588304E+001	-6.3381836E-002	-6.3409097E-002	-7.719960739950658E-005	4.8951576E-009
2	0	0	1	1.689339957323682E+001	-6.8387873E-002	-6.8405233E-002	-8.153221846561207E-005	5.5772302E-009
2	0	0	0	1.739399956059060E+001	-7.3393889E-002	-7.3403746E-002	-8.532670152431362E-005	6.2632997E-009
2	0	0	1	1.789459954794438E+001	-7.8399934E-002	-7.8410864E-002	-9.005414642104738E-005	7.0612236E-009
2	0	0	0	1.839519953529816E+001	-8.3405934E-002	-8.3422355E-002	-9.448811035604939E-005	7.8824209E-009
2	0	0	1	1.889579952265194E+001	-8.8411950E-002	-8.8436417E-002	-9.861147998069058E-005	8.7208463E-009
2	0	0	0	1.939639951000572E+001	-9.3417943E-002	-9.3432918E-002	-1.031288026300072E-004	9.6356247E-009
2	0	0	1	1.989699949735950E+001	-9.8423980E-002	-9.8436758E-002	-1.074763944435470E-004	1.0579628E-008
2	0	0	1	2.039779948470823E+001	-1.0343193E-001	-1.0344154E-001	-1.124251847977994E-004	1.1629433E-008
2	0	0	0	2.089839947206201E+001	-1.0843797E-001	-1.0846265E-001	-1.181443822332955E-004	1.2814254E-008
2	0	0	1	2.139899945941579E+001	-1.1344399E-001	-1.1345284E-001	-1.239027977943761E-004	1.4057125E-008
2	0	0	0	2.189959944676957E+001	-1.1844996E-001	-1.1844978E-001	-1.292678432346260E-004	1.5311748E-008
2	0	0	1	2.240019943412335E+001	-1.2345599E-001	-1.2348098E-001	-1.358986236609217E-004	1.6780895E-008
2	0	0	0	2.290079942147713E+001	-1.2846203E-001	-1.2847269E-001	-1.433761949442981E-004	1.8419925E-008
2	0	0	1	2.340139940883091E+001	-1.3346803E-001	-1.3346596E-001	-1.497317066800866E-004	1.9984085E-008
2	0	0	0	2.390199939618469E+001	-1.3847402E-001	-1.3847929E-001	-1.596389568874839E-004	2.2106690E-008
2	0	0	1	2.440269938353595E+001	-1.4348108E-001	-1.4350671E-001	-1.688069687884974E-004	2.4224931E-008
2	0	0	1	2.490339937088720E+001	-1.4848803E-001	-1.4849943E-001	-1.755537779391516E-004	2.6069635E-008
2	0	0	0	2.540399935824098E+001	-1.5349407E-001	-1.5352930E-001	-1.836942388077798E-004	2.8202448E-008
2	0	0	1	2.590459934559476E+001	-1.5850008E-001	-1.5852438E-001	-1.903625002307391E-004	3.0177098E-008
2	0	0	0	2.640519933294854E+001	-1.6350608E-001	-1.6353738E-001	-1.987442136350786E-004	3.2502108E-008
2	0	0	1	2.690579932030232E+001	-1.6851209E-001	-1.6854490E-001	-2.089459856192181E-004	3.5216782E-008
2	0	0	0	2.740639930765610E+001	-1.7351815E-001	-1.7354387E-001	-2.208821884027668E-004	3.8332750E-008
2	0	0	1	2.790699929500988E+001	-1.7852414E-001	-1.7856003E-001	-2.332161316439276E-004	4.1643080E-008
2	0	0	0	2.840759928236366E+001	-1.8353018E-001	-1.8357308E-001	-2.433315999159579E-004	4.4669132E-008
2	0	0	1	2.890829926971492E+001	-1.8853714E-001	-1.8858647E-001	-2.567697299123185E-004	4.8423299E-008
2	0	0	1	2.940899925706617E+001	-1.9354412E-001	-1.9359991E-001	-2.702103321231119E-004	5.2312696E-008
2	0	0	0	2.990959924441995E+001	-1.9855015E-001	-1.9859660E-001	-2.821235560492392E-004	5.6028778E-008
2	0	0	1	3.041019923177373E+001	-2.0355619E-001	-2.0360568E-001	-2.951173170308678E-004	6.0087565E-008
2	0	0	0	3.091079921912751E+001	-2.0856215E-001	-2.0862232E-001	-3.093815950196777E-004	6.4543904E-008
2	0	0	1	3.141139920648129E+001	-2.1356824E-001	-2.1361312E-001	-3.251972139053623E-004	6.9466395E-008
2	0	0	0	3.191199919383507E+001	-2.1857421E-001	-2.1862727E-001	-3.424922087167459E-004	7.4878137E-008
2	0	0	1	3.241259918118885E+001	-2.2358017E-001	-2.2362572E-001	-3.615233638392524E-004	8.0845922E-008
2	0	0	0	3.291319916854263E+001	-2.2858624E-001	-2.2864345E-001	-3.792898159399199E-004	8.6722132E-008
2	0	0	1	3.341389915589389E+001	-2.3359321E-001	-2.3364712E-001	-4.004980337327059E-004	9.3575210E-008
2	0	0	1	3.391459914324514E+001	-2.3860022E-001	-2.3865144E-001	-4.219915549396594E-004	1.0070890E-007
2	0	0	0	3.441519913059892E+001	-2.4360624E-001	-2.4364993E-001	-4.417838974497073E-004	1.0764062E-007
2	0	0	1	3.491579911795270E+001	-2.4861224E-001	-2.4864443E-001	-4.640219411400429E-004	1.1537647E-007
2	0	0	0	3.541639910530648E+001	-2.5361827E-001	-2.5364691E-001	-4.867929918050962E-004	1.2347354E-007
2	0	0	1	3.591699909266026E+001	-2.5862426E-001	-2.5865898E-001	-5.114586014046633E-004	1.3229335E-007
2	0	0	0	3.641759908001404E+001	-2.6363027E-001	-2.6366344E-001	-5.388263417140248E-004	1.4206881E-007
2	0	0	1	3.691819906736782E+001	-2.6863626E-001	-2.6866862E-001	-5.692460893547691E-004	1.5293857E-007
2	0	0	0	3.741879905472160E+001	-2.7364233E-001	-2.7367270E-001	-6.018256592055004E-004	1.6470325E-007
2	0	0	0	3.791959904207033E+001	-2.7865031E-001	-2.7868506E-001	-6.332873231701640E-004	1.7648772E-007
2	0	0	1	3.842019902942411E+001	-2.8365627E-001	-2.8368139E-001	-6.658368377006124E-004	1.8888552E-007
2	0	0	0	3.892079901677789E+001	-2.8866231E-001	-2.8869098E-001	-6.985532378545375E-004	2.0166603E-007
2	0	0	1	3.942139900413167E+001	-2.9366833E-001	-2.9368910E-001	-7.405080503736575E-004	2.1747914E-007
2	0	0	0	3.992199899148545E+001	-2.9867443E-001	-2.9869702E-001	-7.813998735862922E-004	2.3340182E-007
2	0	0	1	4.042259897883923E+001	-3.0368048E-001	-3.0372557E-001	-8.254697625483792E-004	2.5071628E-007
2	0	0	0	4.092319896619301E+001	-3.0868647E-001	-3.0872300E-001	-8.683354453329246E-004	2.6807513E-007
2	0	0	1	4.142379895354679E+001	-3.1369245E-001	-3.1373101E-001	-9.151207501787786E-004	2.8710176E-007
2	0	0	0	4.192449894089805E+001	-3.1869951E-001	-3.1873131E-001	-9.648410656194397E-004	3.0752506E-007
2	0	0	0	4.242519892824930E+001	-3.2370645E-001	-3.2374841E-001	-1.016156631121022E-003	3.2897910E-007
2	0	0	1	4.292579891560308E+001	-3.2871246E-001	-3.2872429E-001	-1.073839834695495E-003	3.5299723E-007
2	0	0	0	4.342639890295686E+001	-3.3371848E-001	-3.3372682E-001	-1.134709952911928E-003	3.7868315E-007
2	0	0	1	4.392699889031064E+001	-3.3872449E-001	-3.3876202E-001	-1.200860225671434E-003	4.0680584E-007
2	0	0	0	4.442759887766442E+001	-3.4373048E-001	-3.4375951E-001	-1.267754915444156E-003	4.3580280E-007
2	0	0	1	4.492819886501820E+001	-3.4873649E-001	-3.4877515E-001	-1.345017001910103E-003	4.6910850E-007
2	0	0	0	4.542879885237198E+001	-3.5374245E-001	-3.5376972E-001	-1.414516324617053E-003	5.0041302E-007
2	0	0	1	4.592939883972576E+001	-3.5874847E-001	-3.5877624E-001	-1.492631148537610E-003	5.3552060E-007
2	0	0	0	4.643009882707702E+001	-3.6375543E-001	-3.6379695E-001	-1.575308421748665E-003	5.7309239E-007
2	0	0	0	4.693079881442827E+001	-3.6876246E-001	-3.6879972E-001	-1.662431992063521E-003	6.1310442E-007
2	0	0	1	4.743139880178205E+001	-3.7376851E-001	-3.7378928E-001	-1.752539738535189E-003	6.5508056E-007
2	0	0	0	4.793199878913583E+001	-3.7877455E-001	-3.7881124E-001	-1.853010861036531E-003	7.0194136E-007
2	0	0	1	4.843259877648961E+001	-3.8378063E-001	-3.8380942E-001	-1.948777191587966E-003	7.4795906E-007
2	0	0	0	4.893319876384339E+001	-3.8878661E-001	-3.8881204E-001	-2.054236268810225E-003	7.9871177E-007
2	0	0	1	4.943379875119717E+001	-3.9379266E-001	-3.9382771E-001	-2.172503473813411E-003	8.5559208E-007
2	0	0	0	4.993439873855095E+001	-3.9879864E-001	-3.9883795E-001	-2.292602880825625E-003	9.1437704E-007
2	0	0	1	5.043499872590473E+001	-4.0380463E-001	-4.0382698E-001	-2.420392981737907E-003	9.7741997E-007
2	0	0	1	5.093579871325346E+001	-4.0881258E-001	-4.0882999E-001	-2.545550821433359E-003	1.0406975E-006
2	0	0	0	5.143639870060724E+001	-4.1381860E-001	-4.1384223E-001	-2.685570645462054E-003	1.1114025E-006
2	0	0	1	5.193699868796102E+001	-4.1882458E-001	-4.1884580E-001	-2.835208128366205E-003	1.1875151E-006
2	0	0	0	5.243759867531480E+001	-4.2383060E-001	-4.2385477E-001	-2.989627439517502E-003	1.2671678E-006
2	0	0	1	5.293819866266858E+001	-4.2883664E-001	-4.2884409E-001	-3.150836072175433E-003	1.3512174E-006
2	0	0	0	5.343879865002236E+001	-4.3384260E-001	-4.3386483E-001	-3.325684548992097E-003	1.4428975E-006
2	0	0	1	5.393939863737614E+001	-4.3884858E-001	-4.3887392E-001	-3.500991709719970E-003	1.5364940E-006
2	0	0	0	5.443999862472992E+001	-4.4385463E-001	-4.4388485E-001	-3.696917192840925E-003	1.6410055E-006
2	0	0	1	5.494059861208370E+001	-4.4886065E-001	-4.4887331E-001	-3.899270989430520E-003	1.7502787E-006
2	0	0	1	5.544139859943243E+001	-4.5386860E-001	-4.5389259E-001	-4.102960697940557E-003	1.8623034E-006
2	0	0	0	5.594199858678621E+001	-4.5887461E-001	-4.5889941E-001	-4.316604228595082E-003	1.9808872E-006
2	0	0	1	5.644259857413999E+001	-4.6388066E-001	-4.6390393E-001	-4.552767754825937E-003	2.1120468E-006
2	0	0	0	5.694319856149377E+001	-4.6888673E-001	-4.6891186E-001	-4.797562723280496E-003	2.2496340E-006
2	0	0	1	5.744379854884755E+001	-4.7389278E-001	-4.7391084E-001	-5.041751965867650E-003	2.3893408E-006
2	0	0	0	5.794439853620133E+001	-4.7889873E-001	-4.7893286E-001	-5.313009365037855E-003	2.5445747E-006
2	0	0	1	5.844499852355511E+001	-4.8390469E-001	-4.8392531E-001	-5.598437479925706E-003	2.7092256E-006
2	0	0	0	5.894559851090889E+001	-4.8891073E-001	-4.8896036E-001	-5.904277787898950E-003	2.8869579E-006
2	0	0	1	5.944629849826015E+001	-4.9391770E-001	-4.9396285E-001	-6.208408616215512E-003	3.0667231E-006
2	0	0	1	5.994699848561140E+001	-4.9892470E-001	-4.9897552E-001	-6.520068868404755E-003	3.2533546E-006
2	0	0	0	6.044759847296518E+001	-5.0393069E-001	-5.0397336E-001	-6.856311577091496E-003	3.4553984E-006
2	0	0	1	6.094819846031896E+001	-5.0893670E-001	-5.0898337E-001	-7.213069620656765E-003	3.6713325E-006
2	0	0	0	6.144879844767274E+001	-5.1394272E-001	-5.1400125E-001	-7.579385295541577E-003	3.8958137E-006
2	0	0	1	6.194939843502652E+001	-5.1894873E-001	-5.1900804E-001	-7.974806133705589E-003	4.1389885E-006
2	0	0	0	6.244999842238030E+001	-5.2395475E-001	-5.2400017E-001	-8.394154690245226E-003	4.3985383E-006
2	0	0	1	6.295059840973408E+001	-5.2896076E-001	-5.2900499E-001	-8.825242873816752E-003	4.6685977E-006
2	0	0	0	6.345119839708786E+001	-5.3396678E-001	-5.3400916E-001	-9.260422120608236E-003	4.9451501E-006
2	0	0	1	6.395189838443912E+001	-5.3897381E-001	-5.3902835E-001	-9.725150801255147E-003	5.2421319E-006
2	0	0	1	6.447009837134829E+001	-5.4415590E-001	-5.4419398E-001	-1.023391814994093E-002	5.5692367E-006
2	0	0	1	6.498819835825998E+001	-5.4933679E-001	-5.4937428E-001	-1.076861181949948E-002	5.9159984E-006
2	0	0	0	6.548879834561376E+001	-5.5434281E-001	-5.5440980E-001	-1.130533649298937E-002	6.2677896E-006
2	0	0	1	6.598939833296754E+001	-5.5934888E-001	-5.5941612E-001	-1.186337222204933E-002	6.6365615E-006
2	0	0	0	6.648999832032132E+001	-5.6435496E-001	-5.6439722E-001	-1.244632691593972E-002	7.0246724E-006
2	0	0	1	6.699059830767510E+001	-5.6936103E-001	-5.6940794E-001	-1.303989771821654E-002	7.4250215E-006
2	0	0	0	6.749129829502635E+001	-5.7436800E-001	-5.7442242E-001	-1.366227546425944E-002	7.8479170E-006
2	0	0	0	6.799199828237761E+001	-5.7937503E-001	-5.7941908E-001	-1.432897285187573E-002	8.3024806E-006
2	0	0	1	6.849259826973139E+001	-5.8438087E-001	-5.8442271E-001	-1.500100593536566E-002	8.7669287E-006
2	0	0	0	6.899319825708517E+001	-5.8938700E-001	-5.8943510E-001	-1.572325862921681E-002	9.2678401E-006
2	0	0	1	6.949379824443895E+001	-5.9439296E-001	-5.9445500E-001	-1.648073641272364E-002	9.7970560E-006
2	0	0	0	6.999439823179273E+001	-5.9939903E-001	-5.9944409E-001	-1.727065590804194E-002	1.0352793E-005
2	0	0	1	7.049499821914651E+001	-6.0440493E-001	-6.0445565E-001	-1.808108168759426E-002	1.0929212E-005
2	0	0	0	7.099559820650029E+001	-6.0941100E-001	-6.0946012E-001	-1.892481169089938E-002	1.1533918E-005
2	0	0	1	7.149619819385407E+001	-6.1441702E-001	-6.1448783E-001	-1.979049886661030E-002	1.2161021E-005
2	0	0	1	7.199699818120280E+001	-6.1942512E-001	-6.1948258E-001	-2.069308511927703E-002	1.2819006E-005
2	0	0	0	7.249759816855658E+001	-6.2443095E-001	-6.2448108E-001	-2.167066957818303E-002	1.3532923E-005
2	0	0	1	7.299819815591036E+001	-6.2943709E-001	-6.2949371E-001	-2.263793979398521E-002	1.4250440E-005
2	0	0	0	7.349879814326414E+001	-6.3444304E-001	-6.3449639E-001	-2.364638398672309E-002	1.5003546E-005
2	0	0	1	7.399939813061792E+001	-6.3944918E-001	-6.3948411E-001	-2.467777927346812E-002	1.5781048E-005
2	0	0	0	7.449999811797170E+001	-6.4445508E-001	-6.4448094E-001	-2.578853679219667E-002	1.6620221E-005
2	0	0	1	7.500059810532548E+001	-6.4946115E-001	-6.4950711E-001	-2.693346954875969E-002	1.7493479E-005
2	0	0	0	7.550119809267926E+001	-6.5446728E-001	-6.5450048E-001	-2.814789507138862E-002	1.8422810E-005
2	0	0	1	7.600189808003051E+001	-6.5947419E-001	-6.5948611E-001	-2.941670185907908E-002	1.9399906E-005
2	0	0	1	7.650259806738177E+001	-6.6448122E-001	-6.6449094E-001	-3.065499824423173E-002	2.0369969E-005
2	0	0	0	7.700319805473555E+001	-6.6948718E-001	-6.6951138E-001	-3.194154985148723E-002	2.1385231E-005
2	0	0	1	7.750379804208933E+001	-6.7449325E-001	-6.7452300E-001	-3.333747132189180E-002	2.2486891E-005
2	0	0	0	7.800439802944311E+001	-6.7949903E-001	-6.7951459E-001	-3.478362804054948E-002	2.3635983E-005
2	0	0	1	7.850499801679689E+001	-6.8450522E-001	-6.8451166E-001	-3.625995297998303E-002	2.4820361E-005
2	0	0	0	7.900559800415067E+001	-6.8951112E-001	-6.8953979E-001	-3.777791680995746E-002	2.6049376E-005
2	0	0	1	7.950619799150445E+001	-6.9451737E-001	-6.9454205E-001	-3.934900142769771E-002	2.7329535E-005
2	0	0	0	8.000679797885823E+001	-6.9952315E-001	-6.9954300E-001	-4.096123015863662E-002	2.8654142E-005
2	0	0	1	8.050749796620948E+001	-7.0453030E-001	-7.0455521E-001	-4.267807428345205E-002	3.0069059E-005
2	0	0	1	8.100819795356074E+001	-7.0953721E-001	-7.0956051E-001	-4.439749151446978E-002	3.1502706E-005
2	0	0	0	8.150879794091452E+001	-7.1454322E-001	-7.1457791E-001	-4.615858448467292E-002	3.2983906E-005
2	0	0	1	8.200939792826830E+001	-7.1954912E-001	-7.1957332E-001	-4.801685830681668E-002	3.4551649E-005
2	0	0	0	8.250999791562208E+001	-7.2455543E-001	-7.2456586E-001	-4.986012883078805E-002	3.6126949E-005
2	0	0	1	8.301059790297586E+001	-7.2956133E-001	-7.2957760E-001	-5.177465701980866E-002	3.7773629E-005
2	0	0	0	8.351119789032964E+001	-7.3456734E-001	-7.3458225E-001	-5.381350405680829E-002	3.9530445E-005
2	0	0	1	8.401179787768342E+001	-7.3957354E-001	-7.3958451E-001	-5.584815727034709E-002	4.1304433E-005
2	0	0	0	8.451239786503720E+001	-7.4457937E-001	-7.4459422E-001	-5.795233708003290E-002	4.3150976E-005
2	0	0	1	8.501309785238846E+001	-7.4958646E-001	-7.4960524E-001	-6.019256607030629E-002	4.5120662E-005
2	0	0	1	8.551379783973971E+001	-7.5459319E-001	-7.5460064E-001	-6.244459459874829E-002	4.7120731E-005
2	0	0	0	8.601439782709349E+001	-7.5959939E-001	-7.5962704E-001	-6.469530974813331E-002	4.9144306E-005
2	0	0	1	8.651499781444727E+001	-7.6460522E-001	-7.6463950E-001	-6.712068247336478E-002	5.1323124E-005
2	0	0	0	8.701559780180105E+001	-7.6961142E-001	-7.6963711E-001	-6.958383970851434E-002	5.3554304E-005
2	0	0	1	8.751619778915483E+001	-7.7461720E-001	-7.7464545E-001	-7.205979842759414E-002	5.5820794E-005
2	0	0	0	8.801679777650861E+001	-7.7962351E-001	-7.7966076E-001	-7.469909912884454E-002	5.8239955E-005
2	0	0	1	8.851739776386239E+001	-7.8462929E-001	-7.8466737E-001	-7.732479771963585E-002	6.0674247E-005
2	0	0	0	8.901809775121365E+001	-7.8963643E-001	-7.8967446E-001	-7.998058361060301E-002	6.3158623E-005
2	0	0	0	8.951879773856490E+001	-7.9464322E-001	-7.9468453E-001	-8.267259223063750E-002	6.5698630E-005
2	0	0	1	9.001939772591868E+001	-7.9964954E-001	-7.9969198E-001	-8.544330366136166E-002	6.8328322E-005
2	0	0	0	9.051999771327246E+001	-8.0465543E-001	-8.0468988E-001	-8.836423155224660E-002	7.1105802E-005
2	0	0	1	9.102059770062624E+001	-8.0966145E-001	-8.0970353E-001	-9.127704226680866E-002	7.3907344E-005
2	0	0	0	9.152119768798002E+001	-8.1466752E-001	-8.1472367E-001	-9.429176150540058E-002	7.6821729E-005
2	0	0	1	9.202179767533380E+001	-8.1967342E-001	-8.1971955E-001	-9.737949429029058E-002	7.9823876E-005
2	0	0	0	9.252239766268758E+001	-8.2467967E-001	-8.2473576E-001	-1.005330188527507E-001	8.2913175E-005
2	0	0	1	9.303809764965990E+001	-8.2983649E-001	-8.2989299E-001	-1.038727997017979E-001	8.6203312E-005
2	0	0	1	9.355379763663223E+001	-8.3499360E-001	-8.3505166E-001	-1.073031283612489E-001	8.9603658E-005
2	0	0	0	9.405439762398601E+001	-8.3999938E-001	-8.4004271E-001	-1.107687307313612E-001	9.3050461E-005
2	0	0	1	9.455499761133979E+001	-8.4500551E-001	-8.4504944E-001	-1.142114810220702E-001	9.6514348E-005
2	0	0	0	9.505559759869357E+001	-8.5001141E-001	-8.5006636E-001	-1.176489774391281E-001	1.0000944E-004
2	0	0	1	9.555619758604735E+001	-8.5501760E-001	-8.5507137E-001	-1.211773379308831E-001	1.0361528E-004
2	0	0	0	9.605679757340113E+001	-8.6002332E-001	-8.6007875E-001	-1.248574883301672E-001	1.0738727E-004
2	0	0	1	9.655739756075491E+001	-8.6502969E-001	-8.6508584E-001	-1.285537216457300E-001	1.1121001E-004
2	0	0	0	9.705809754810616E+001	-8.7003636E-001	-8.7010020E-001	-1.323207482232072E-001	1.1513231E-004
2	0	0	0	9.755879753545742E+001	-8.7504363E-001	-8.7508291E-001	-1.362073166213067E-001	1.1919269E-004
2	0	0	1	9.805939752281120E+001	-8.8004935E-001	-8.8007528E-001	-1.401672456230170E-001	1.2335772E-004
2	0	0	0	9.855999751016498E+001	-8.8505560E-001	-8.8508826E-001	-1.441771002973096E-001	1.2760946E-004
2	0	0	1	9.906059749751876E+001	-8.9006144E-001	-8.9009500E-001	-1.482245089088807E-001	1.3193389E-004
2	0	0	0	9.956119748487254E+001	-8.9506769E-001	-8.9510447E-001	-1.523791296325507E-001	1.3639525E-004
2	0	0	1	1.000617974722263E+002	-9.0007371E-001	-9.0010697E-001	-1.565864136931148E-001	1.4094452E-004
2	0	0	0	1.005623974595801E+002	-9.0507960E-001	-9.0512681E-001	-1.608367661874057E-001	1.4557767E-004
2	0	0	1	1.010629974469339E+002	-9.1008574E-001	-9.1012287E-001	-1.651234032207926E-001	1.5028259E-004
2	0	0	0	1.015636974342851E+002	-9.1509259E-001	-9.1512954E-001	-1.695618667790777E-001	1.5517107E-004
2	0	0	0	1.020643974216364E+002	-9.2009974E-001	-9.2013085E-001	-1.741161792207766E-001	1.6020967E-004
2	0	0	1	1.025649974089902E+002	-9.2510545E-001	-9.2516047E-001	-1.786148851804624E-001	1.6524743E-004
2	0	0	0	1.030655973963439E+002	-9.3011165E-001	-9.3016368E-001	-1.831796534263832E-001	1.7038707E-004
2	0	0	1	1.035661973836977E+002	-9.3511754E-001	-9.3516463E-001	-1.879641190382282E-001	1.7577740E-004
2	0	0	0	1.040667973710515E+002	-9.4012374E-001	-9.4017172E-001	-1.928130608321803E-001	1.8127738E-004
2	0	0	1	1.045673973584053E+002	-9.4512939E-001	-9.4517112E-001	-1.977669524144083E-001	1.8692361E-004
2	0	0	0	1.050679973457591E+002	-9.5013571E-001	-9.5018357E-001	-2.027167830836064E-001	1.9261816E-004
2	0	0	1	1.055685973331128E+002	-9.5514148E-001	-9.5516121E-001	-2.076720232190183E-001	1.9836026E-004
2	0	0	1	1.060693973204616E+002	-9.6014965E-001	-9.6015960E-001	-2.128469471625318E-001	2.0436704E-004
2	0	0	0	1.065699973078154E+002	-9.6515542E-001	-9.6520472E-001	-2.180287062781621E-001	2.1044233E-004
2	0	0	1	1.070705972951691E+002	-9.7016174E-001	-9.7019434E-001	-2.233052917659308E-001	2.1664953E-004
2	0	0	0	1.075711972825229E+002	-9.7516763E-001	-9.7521031E-001	-2.285892606386075E-001	2.2292261E-004
2	0	0	1	1.080717972698767E+002	-9.8017371E-001	-9.8022383E-001	-2.340986190381353E-001	2.2946905E-004
2	0	0	0	1.085723972572305E+002	-9.8517972E-001	-9.8523784E-001	-2.395750063830469E-001	2.3603837E-004
2	0	0	1	1.090729972445843E+002	-9.9018568E-001	-9.9021524E-001	-2.449888469767845E-001	2.4259169E-004
2	0	0	0	1.095735972319380E+002	-9.9519187E-001	-9.9520838E-001	-2.507401672011502E-001	2.4953872E-004
2	0	0	1	1.099390972227047E+002	-9.9884552E-001	-9.9887151E-001	-2.549761565783049E-001	2.5468841E-004
2	0	0	0	1.100521972198476E+002	-1.0000215E+000	-1.0000951E+000	-2.563587576150894E-001	2.5638315E-004