EC-Lab ASCII FILE
Nb header lines : 55                          

I-V Characterization

Run on channel : 1 (SN 6514)
User : 
CE vs. WE compliance from -10 V to 10 V
Electrode connection : standard
Ewe ctrl range : min = -1.10 V, max = 0.20 V
Safety Limits :
	Do not start on E overload
Acquisition started on : 06/15/2016 19:44:34
Saved on :
	File : B125-G54-UN-G-D1GB-C16 BW 10mVs dark_C01.mpr
	Directory : E:\EC-Lab measurements\B125-G54-UN-G-D1GB\
	Host : 10.0.2.15
Device : VSP (SN 0295)
Address : USB
EC-Lab for windows v11.01 (software)
Internet server v11.00 (firmware)
Command interpretor v11.00 (firmware)
Electrode material : 
Initial state : 
Electrolyte : 
Comments : 
Electrode surface area : 0.001 cm²
Characteristic mass : 0.001 g
Equivalent Weight : 0.000 g/eq.
Density : 0.000 g/cm3
tR (h:m:s)          0:00:0.0000         
dER/dt (mV/h)       0.0                 
dER (mV)            0                   
dtR (s)             0.0000              
dE/dt               10.000              
dE/dt unit          mV/s                
Ei (V)              -1.000              
vs.                 Ref                 
EL (V)              0.100               
vs.                 Ref                 
record              <I>                 
dI                  0.000               
unit dI             µA                  
tI (s)              0.1000              
step percent        100                 
N                   100                 
E range min (V)     -1.100              
E range max (V)     0.200               
I Range             Auto                
I Range min         Unset               
I Range max         Unset               
I Range init        Unset               
Bandwidth           5                   

mode	ox/red	error	control changes	time/s	control/V	Ewe/V	<I>/mA	P/W
2	1	0	0	1.149999970948556E-001	-9.9942070E-001	-9.9952227E-001	-9.515201711654662E-001	9.5106562E-004
2	1	0	1	3.852999902665033E-001	-9.9671972E-001	-9.9674129E-001	-1.010094246996434E+000	1.0068027E-003
2	1	0	1	9.033999771781964E-001	-9.9153835E-001	-9.9162406E-001	-1.048463590078236E+000	1.0396817E-003
2	1	0	0	1.404099964529451E+000	-9.8653173E-001	-9.8663580E-001	-1.058654106676169E+000	1.0445061E-003
2	1	0	0	1.904799951880705E+000	-9.8152447E-001	-9.8162210E-001	-1.059800453062607E+000	1.0403235E-003
2	1	0	1	2.405399939234485E+000	-9.7651869E-001	-9.7661638E-001	-1.055311676227543E+000	1.0306346E-003
2	1	0	0	2.905999926588265E+000	-9.7151250E-001	-9.7160703E-001	-1.048243902679497E+000	1.0184811E-003
2	1	0	1	3.406599913942046E+000	-9.6650648E-001	-9.6661758E-001	-1.038738490862870E+000	1.0040629E-003
2	1	0	0	3.907199901295826E+000	-9.6150064E-001	-9.6158463E-001	-1.027682537791141E+000	9.8820368E-004
2	1	0	1	4.407799888649606E+000	-9.5649445E-001	-9.5656794E-001	-1.015430889769309E+000	9.7132864E-004
2	1	0	0	4.908399876003386E+000	-9.5148867E-001	-9.5159185E-001	-1.002214759456489E+000	9.5369940E-004
2	1	0	1	5.408999863357167E+000	-9.4648224E-001	-9.4658995E-001	-9.886728739801676E-001	9.3586778E-004
2	1	0	0	5.909699850708421E+000	-9.4147563E-001	-9.4158059E-001	-9.746736228242532E-001	9.1773376E-004
2	1	0	0	6.410399838059675E+000	-9.3646848E-001	-9.3656868E-001	-9.602184690646354E-001	8.9931051E-004
2	1	0	1	6.910999825413455E+000	-9.3146265E-001	-9.3156195E-001	-9.454943331521566E-001	8.8078657E-004
2	1	0	0	7.411599812767236E+000	-9.2645651E-001	-9.2656362E-001	-9.306527128636901E-001	8.6230895E-004
2	1	0	1	7.912199800121016E+000	-9.2145073E-001	-9.2154533E-001	-9.154893777022395E-001	8.4366498E-004
2	1	0	0	8.412799787474796E+000	-9.1644448E-001	-9.1655058E-001	-9.001689940287978E-001	8.2505040E-004
2	1	0	1	8.913399774828576E+000	-9.1143870E-001	-9.1153908E-001	-8.846829157493339E-001	8.0642302E-004
2	1	0	0	9.413999762182357E+000	-9.0643233E-001	-9.0653962E-001	-8.696963499706598E-001	7.8841421E-004
2	1	0	1	9.914599749536137E+000	-9.0142655E-001	-9.0153068E-001	-8.542798636541020E-001	7.7015953E-004
2	1	0	1	1.041539973688487E+001	-8.9641839E-001	-8.9651412E-001	-8.389719097550381E-001	7.5215014E-004
2	1	0	0	1.091599972423865E+001	-8.9141262E-001	-8.9150435E-001	-8.237493622472528E-001	7.3437614E-004
2	1	0	1	1.141659971159243E+001	-8.8640636E-001	-8.8651443E-001	-8.085490451018815E-001	7.1679038E-004
2	1	0	0	1.191719969894621E+001	-8.8140047E-001	-8.8148648E-001	-7.929201704074164E-001	6.9894840E-004
2	1	0	1	1.241779968629999E+001	-8.7639445E-001	-8.7649560E-001	-7.779432699484374E-001	6.8186386E-004
2	1	0	0	1.291839967365377E+001	-8.7138826E-001	-8.7149727E-001	-7.627005847778836E-001	6.6469150E-004
2	1	0	1	1.341899966100755E+001	-8.6638254E-001	-8.6650747E-001	-7.477872816487121E-001	6.4796326E-004
2	1	0	0	1.391959964836133E+001	-8.6137623E-001	-8.6149979E-001	-7.328596004252113E-001	6.3135842E-004
2	1	0	1	1.442029963571258E+001	-8.5636950E-001	-8.5647917E-001	-7.182229557808046E-001	6.1514298E-004
2	1	0	1	1.492099962306384E+001	-8.5136235E-001	-8.5147792E-001	-7.034690453493595E-001	5.9898838E-004
2	1	0	0	1.542159961041762E+001	-8.4635657E-001	-8.4647626E-001	-6.888583024218118E-001	5.8310217E-004
2	1	0	1	1.592219959777140E+001	-8.4135038E-001	-8.4145302E-001	-6.746145104840817E-001	5.6765642E-004
2	1	0	0	1.642279958512518E+001	-8.3634448E-001	-8.3645040E-001	-6.602650325718717E-001	5.5227894E-004
2	1	0	1	1.692339957247896E+001	-8.3133829E-001	-8.3146214E-001	-6.459560923193841E-001	5.3708802E-004
2	1	0	0	1.742399955983274E+001	-8.2633251E-001	-8.2644904E-001	-6.320054097571219E-001	5.2232028E-004
2	1	0	1	1.792459954718652E+001	-8.2132626E-001	-8.2144052E-001	-6.183547615703020E-001	5.0794164E-004
2	1	0	0	1.842519953454030E+001	-8.1632042E-001	-8.1643343E-001	-6.048316887912266E-001	4.9380481E-004
2	1	0	1	1.892589952189155E+001	-8.1131315E-001	-8.1143165E-001	-5.913311734848019E-001	4.7982484E-004
2	1	0	1	1.942659950924281E+001	-8.0630654E-001	-8.0642760E-001	-5.783613200472937E-001	4.6640652E-004
2	1	0	0	1.992719949659659E+001	-8.0130035E-001	-8.0141187E-001	-5.654083486409884E-001	4.5312496E-004
2	1	0	1	2.042779948395037E+001	-7.9629433E-001	-7.9640186E-001	-5.524779370572581E-001	4.3999444E-004
2	1	0	0	2.092839947130415E+001	-7.9128832E-001	-7.9139280E-001	-5.394706620899710E-001	4.2693320E-004
2	1	0	1	2.142899945865793E+001	-7.8628224E-001	-7.8639269E-001	-5.271061583742602E-001	4.1451244E-004
2	1	0	0	2.192959944601171E+001	-7.8127635E-001	-7.8137910E-001	-5.146198725783089E-001	4.0211322E-004
2	1	0	1	2.243019943336549E+001	-7.7627003E-001	-7.7638078E-001	-5.023972986941008E-001	3.9005160E-004
2	1	0	0	2.293079942071927E+001	-7.7126431E-001	-7.7136010E-001	-4.904509388044840E-001	3.7831429E-004
2	1	0	1	2.344899940762843E+001	-7.6608223E-001	-7.6615107E-001	-4.787420455194358E-001	3.6678874E-004
2	1	0	0	2.396719939453760E+001	-7.6090038E-001	-7.6093858E-001	-4.667333165724363E-001	3.5515538E-004
2	1	0	1	2.446779938189138E+001	-7.5589418E-001	-7.5593162E-001	-4.552673896132955E-001	3.4415102E-004
2	1	0	0	2.496839936924516E+001	-7.5088835E-001	-7.5091660E-001	-4.438951463510117E-001	3.3332824E-004
2	1	0	1	2.546899935659894E+001	-7.4588227E-001	-7.4591887E-001	-4.327724217355100E-001	3.2281311E-004
2	1	0	0	2.596959934395272E+001	-7.4087632E-001	-7.4090052E-001	-4.220866942668886E-001	3.1272424E-004
2	1	0	1	2.647019933130650E+001	-7.3587018E-001	-7.3589247E-001	-4.113418888048779E-001	3.0270341E-004
2	1	0	1	2.697099931865523E+001	-7.3086238E-001	-7.3089606E-001	-4.006828325522322E-001	2.9285750E-004
2	1	0	0	2.747159930600901E+001	-7.2585618E-001	-7.2588092E-001	-3.903950309022717E-001	2.8338030E-004
2	1	0	1	2.797219929336279E+001	-7.2085029E-001	-7.2087801E-001	-3.803928420315446E-001	2.7421684E-004
2	1	0	0	2.847279928071657E+001	-7.1584415E-001	-7.1587664E-001	-3.704675062100922E-001	2.6520903E-004
2	1	0	1	2.897339926807035E+001	-7.1083832E-001	-7.1087527E-001	-3.606553807398818E-001	2.5638100E-004
2	1	0	0	2.947399925542413E+001	-7.0583212E-001	-7.0586658E-001	-3.511524636953398E-001	2.4786679E-004
2	1	0	1	2.997459924277791E+001	-7.0082617E-001	-7.0085967E-001	-3.418562996894248E-001	2.3959330E-004
2	1	0	0	3.047519923013169E+001	-6.9582009E-001	-6.9586116E-001	-3.326068487220113E-001	2.3144818E-004
2	1	0	1	3.097589921748295E+001	-6.9081295E-001	-6.9083482E-001	-3.236544311662666E-001	2.2359175E-004
2	1	0	1	3.147659920483420E+001	-6.8580610E-001	-6.8584025E-001	-3.149201634020411E-001	2.1598492E-004
2	1	0	0	3.197719919218798E+001	-6.8079996E-001	-6.8083656E-001	-3.062501103634023E-001	2.0850627E-004
2	1	0	1	3.247779917954176E+001	-6.7579418E-001	-6.7583400E-001	-2.978054580192820E-001	2.0126706E-004
2	1	0	0	3.297839916689554E+001	-6.7078799E-001	-6.7082167E-001	-2.893234928308841E-001	1.9408447E-004
2	1	0	1	3.347899915424932E+001	-6.6578215E-001	-6.6580898E-001	-2.811837039890595E-001	1.8721464E-004
2	1	0	0	3.397959914160310E+001	-6.6077602E-001	-6.6080391E-001	-2.730931111927450E-001	1.8046099E-004
2	1	0	1	3.448019912895688E+001	-6.5577024E-001	-6.5579593E-001	-2.652527805541203E-001	1.7395169E-004
2	1	0	0	3.498079911631066E+001	-6.5076405E-001	-6.5081871E-001	-2.575571542996029E-001	1.6762302E-004
2	1	0	1	3.548149910366192E+001	-6.4575720E-001	-6.4580423E-001	-2.500648812515255E-001	1.6149296E-004
2	1	0	1	3.598219909101317E+001	-6.4075005E-001	-6.4080095E-001	-2.427721461769096E-001	1.5556862E-004
2	1	0	0	3.648279907836695E+001	-6.3574409E-001	-6.3581216E-001	-2.355994866228285E-001	1.4979702E-004
2	1	0	1	3.698339906572073E+001	-6.3073790E-001	-6.3080579E-001	-2.285549805561334E-001	1.4417380E-004
2	1	0	0	3.748399905307451E+001	-6.2573200E-001	-6.2579864E-001	-2.217848723308462E-001	1.3879267E-004
2	1	0	1	3.798459904042829E+001	-6.2072587E-001	-6.2078887E-001	-2.151282954621494E-001	1.3354926E-004
2	1	0	0	3.848519902778207E+001	-6.1571997E-001	-6.1578405E-001	-2.085548441134040E-001	1.2842474E-004
2	1	0	1	3.898579901513585E+001	-6.1071390E-001	-6.1078000E-001	-2.022645948804283E-001	1.2353917E-004
2	1	0	0	3.948639900248963E+001	-6.0570776E-001	-6.0576606E-001	-1.959979067555011E-001	1.1872888E-004
2	1	0	1	3.998709898984089E+001	-6.0070091E-001	-6.0076523E-001	-1.898299702131045E-001	1.1404324E-004
2	1	0	1	4.048779897719214E+001	-5.9569383E-001	-5.9575403E-001	-1.838705499591144E-001	1.0954162E-004
2	1	0	0	4.098839896454592E+001	-5.9068793E-001	-5.9075266E-001	-1.780576837536515E-001	1.0518805E-004
2	1	0	1	4.148899895189970E+001	-5.8568180E-001	-5.8573383E-001	-1.723128538620856E-001	1.0092946E-004
2	1	0	0	4.198959893925348E+001	-5.8067590E-001	-5.8073443E-001	-1.667838829606929E-001	9.6857140E-005
2	1	0	1	4.249019892660726E+001	-5.7566988E-001	-5.7575309E-001	-1.614642287771840E-001	9.2963528E-005
2	1	0	0	4.299079891396104E+001	-5.7066387E-001	-5.7073867E-001	-1.561867993219690E-001	8.9141846E-005
2	1	0	1	4.349139890131482E+001	-5.6565773E-001	-5.6572145E-001	-1.511859960710940E-001	8.5529158E-005
2	1	0	0	4.399199888866860E+001	-5.6065184E-001	-5.6071717E-001	-1.461953689282822E-001	8.1974256E-005
2	1	0	0	4.449279887601733E+001	-5.5564380E-001	-5.5572832E-001	-1.413269982345251E-001	7.8539415E-005
2	1	0	1	4.499339886337111E+001	-5.5063784E-001	-5.5070215E-001	-1.365519474901702E-001	7.5199452E-005
2	1	0	0	4.549399885072489E+001	-5.4563177E-001	-5.4569566E-001	-1.318830258311210E-001	7.1967996E-005
2	1	0	1	4.599459883807867E+001	-5.4062581E-001	-5.4067534E-001	-1.274235583793015E-001	6.8894777E-005
2	1	0	0	4.649519882543245E+001	-5.3561974E-001	-5.3567713E-001	-1.231496006826838E-001	6.5968423E-005
2	1	0	1	4.699579881278623E+001	-5.3061360E-001	-5.3065902E-001	-1.188673900541206E-001	6.3078056E-005
2	1	0	0	4.749639880014001E+001	-5.2560765E-001	-5.2566004E-001	-1.147790239818953E-001	6.0334747E-005
2	1	0	1	4.799699878749379E+001	-5.2060163E-001	-5.2066010E-001	-1.106863105354304E-001	5.7629946E-005
2	1	0	0	4.849769877484505E+001	-5.1559466E-001	-5.1565981E-001	-1.067783226277099E-001	5.5061289E-005
2	1	0	0	4.899839876219630E+001	-5.1058763E-001	-5.1064062E-001	-1.030255405725013E-001	5.2609026E-005
2	1	0	1	4.949899874955008E+001	-5.0558156E-001	-5.0564104E-001	-9.934521493178483E-002	5.0233019E-005
2	1	0	0	4.999959873690386E+001	-5.0057560E-001	-5.0062650E-001	-9.568671049308441E-002	4.7903304E-005
2	1	0	1	5.050019872425764E+001	-4.9556959E-001	-4.9563339E-001	-9.225281015833775E-002	4.5723573E-005
2	1	0	0	5.100079871161142E+001	-4.9056357E-001	-4.9061793E-001	-8.897033587903191E-002	4.3650442E-005
2	1	0	1	5.150139869896520E+001	-4.8555756E-001	-4.8559549E-001	-8.571618872572245E-002	4.1623396E-005
2	1	0	0	5.200199868631898E+001	-4.8055160E-001	-4.8059383E-001	-8.256776777958619E-002	3.9681559E-005
2	1	0	1	5.250259867367276E+001	-4.7554561E-001	-4.7558269E-001	-7.946546544859345E-002	3.7792401E-005
2	1	0	0	5.300329866102402E+001	-4.7053868E-001	-4.7057146E-001	-7.651347397634178E-002	3.6005058E-005
2	1	0	0	5.350399864837527E+001	-4.6553162E-001	-4.6556827E-001	-7.369239952538864E-002	3.4308843E-005
2	1	0	1	5.400459863572905E+001	-4.6052563E-001	-4.6056533E-001	-7.087033205224824E-002	3.2640419E-005
2	1	0	0	5.450519862308283E+001	-4.5551962E-001	-4.5555899E-001	-6.809822466642732E-002	3.1022759E-005
2	1	0	1	5.500579861043661E+001	-4.5051363E-001	-4.5054454E-001	-6.549584522915342E-002	2.9508796E-005
2	1	0	0	5.550639859779039E+001	-4.4550753E-001	-4.4554713E-001	-6.298439281114260E-002	2.8062515E-005
2	1	0	1	5.600699858514417E+001	-4.4050154E-001	-4.4054821E-001	-6.055467790878566E-002	2.6677255E-005
2	1	0	0	5.650759857249795E+001	-4.3549553E-001	-4.3554899E-001	-5.813438505138813E-002	2.5320373E-005
2	1	0	1	5.700819855985173E+001	-4.3048954E-001	-4.3051976E-001	-5.587760996614621E-002	2.4056415E-005
2	1	0	0	5.750889854720299E+001	-4.2548248E-001	-4.2550787E-001	-5.366974304439064E-002	2.2836899E-005
2	1	0	0	5.800959853455424E+001	-4.2047545E-001	-4.2051250E-001	-5.148564909470665E-002	2.1650359E-005
2	1	0	1	5.851019852190802E+001	-4.1546944E-001	-4.1549888E-001	-4.942385376185388E-002	2.0535555E-005
2	1	0	0	5.902829850881972E+001	-4.1028851E-001	-4.1030720E-001	-4.735665224310714E-002	1.9430776E-005
2	1	0	0	5.954639849573141E+001	-4.0510741E-001	-4.0515214E-001	-4.534071764305703E-002	1.8369888E-005
2	1	0	1	6.004699848308519E+001	-4.0010142E-001	-4.0015224E-001	-4.347396039232188E-002	1.7396202E-005
2	1	0	0	6.054759847043897E+001	-3.9509541E-001	-3.9513716E-001	-4.170767891168670E-002	1.6480253E-005
2	1	0	0	6.104839845778770E+001	-3.9008749E-001	-3.9011565E-001	-3.995456251969703E-002	1.5586900E-005
2	1	0	1	6.154899844514148E+001	-3.8508150E-001	-3.8511533E-001	-3.826685955663192E-002	1.4737154E-005
2	1	0	0	6.204959843249526E+001	-3.8007551E-001	-3.8010615E-001	-3.671531567844288E-002	1.3955717E-005
2	1	0	1	6.255019841984904E+001	-3.7506947E-001	-3.7510172E-001	-3.514354717664997E-002	1.3182404E-005
2	1	0	0	6.305079840720282E+001	-3.7006348E-001	-3.7009522E-001	-3.364393130307146E-002	1.2451458E-005
2	1	0	1	6.355139839455660E+001	-3.6505744E-001	-3.6509529E-001	-3.217435417701731E-002	1.1746705E-005
2	1	0	0	6.405199838191038E+001	-3.6005148E-001	-3.6008969E-001	-3.076344272854525E-002	1.1077598E-005
2	1	0	1	6.455259836926416E+001	-3.5504541E-001	-3.5508764E-001	-2.941561596325348E-002	1.0445122E-005
2	1	0	0	6.505329835661541E+001	-3.5003841E-001	-3.5007203E-001	-2.812807942025658E-002	9.8468536E-006
2	1	0	0	6.555399834396667E+001	-3.4503147E-001	-3.4506676E-001	-2.683833663239116E-002	9.2610180E-006
2	1	0	1	6.605459833132045E+001	-3.4002537E-001	-3.4004578E-001	-2.566420670804088E-002	8.7270055E-006
2	1	0	0	6.655519831867423E+001	-3.3501938E-001	-3.3502650E-001	-2.450880010346082E-002	8.2110973E-006
2	1	0	1	6.705579830602801E+001	-3.3001333E-001	-3.3003318E-001	-2.342924483941006E-002	7.7324285E-006
2	1	0	0	6.755639829338179E+001	-3.2500729E-001	-3.2503700E-001	-2.235212159312300E-002	7.2652665E-006
2	1	0	1	6.805699828073557E+001	-3.2000130E-001	-3.2005709E-001	-2.133002516624552E-002	6.8268259E-006
2	1	0	0	6.855759826808935E+001	-3.1499526E-001	-3.1503642E-001	-2.036710502695221E-002	6.4163796E-006
2	1	0	1	6.905819825544313E+001	-3.0998927E-001	-3.1002426E-001	-1.943474527165251E-002	6.0252423E-006
2	1	0	0	6.955889824279438E+001	-3.0498224E-001	-3.0502129E-001	-1.852770266648418E-002	5.6513436E-006
2	1	0	0	7.005959823014564E+001	-2.9997534E-001	-3.0002329E-001	-1.763959120963243E-002	5.2922883E-006
2	1	0	1	7.056019821749942E+001	-2.9496926E-001	-2.9500338E-001	-1.681150095317821E-002	4.9594496E-006
2	1	0	0	7.106079820485320E+001	-2.8996328E-001	-2.8998864E-001	-1.602157033655861E-002	4.6460732E-006
2	1	0	1	7.156139819220698E+001	-2.8495729E-001	-2.8499773E-001	-1.524678507915726E-002	4.3452992E-006
2	1	0	0	7.206199817956076E+001	-2.7995127E-001	-2.7998382E-001	-1.449028216020093E-002	4.0570444E-006
2	1	0	1	7.256259816691454E+001	-2.7494520E-001	-2.7497369E-001	-1.380395690842937E-002	3.7957250E-006
2	1	0	0	7.306319815426832E+001	-2.6993918E-001	-2.6997754E-001	-1.313334503918021E-002	3.5457083E-006
2	1	0	1	7.356379814162210E+001	-2.6493314E-001	-2.6496387E-001	-1.248862628814090E-002	3.3090346E-006
2	1	0	0	7.406449812897336E+001	-2.5992614E-001	-2.5996447E-001	-1.188901905746110E-002	3.0907224E-006
2	1	0	0	7.456519811632461E+001	-2.5491923E-001	-2.5494015E-001	-1.130484252724293E-002	2.8820582E-006
2	1	0	1	7.506579810367839E+001	-2.4991313E-001	-2.4994048E-001	-1.073817054017498E-002	2.6839036E-006
2	1	0	0	7.556639809103217E+001	-2.4490714E-001	-2.4495997E-001	-1.021003138890578E-002	2.5010490E-006
2	1	0	1	7.606699807838595E+001	-2.3990114E-001	-2.3996301E-001	-9.697950903947372E-003	2.3271496E-006
2	1	0	0	7.656759806573973E+001	-2.3489511E-001	-2.3494492E-001	-9.193596436438026E-003	2.1599888E-006
2	1	0	1	7.706819805309351E+001	-2.2988909E-001	-2.2994703E-001	-8.716782390116737E-003	2.0043983E-006
2	1	0	0	7.756879804044729E+001	-2.2488311E-001	-2.2492537E-001	-8.261392137340201E-003	1.8581967E-006
2	1	0	1	7.806939802780107E+001	-2.1987706E-001	-2.1992624E-001	-7.833438175540566E-003	1.7227786E-006
2	1	0	1	7.857019801514980E+001	-2.1486913E-001	-2.1492341E-001	-7.432742677673645E-003	1.5974704E-006
2	1	0	0	7.907079800250358E+001	-2.0986313E-001	-2.0992665E-001	-7.035493240287655E-003	1.4769375E-006
2	1	0	1	7.957139798985736E+001	-2.0485707E-001	-2.0492208E-001	-6.654201462122124E-003	1.3635928E-006
2	1	0	0	8.007199797721114E+001	-1.9985107E-001	-1.9991003E-001	-6.294545543635677E-003	1.2583428E-006
2	1	0	1	8.057259796456492E+001	-1.9484507E-001	-1.9490373E-001	-5.949527022478618E-003	1.1595851E-006
2	1	0	0	8.107319795191870E+001	-1.8983904E-001	-1.8988563E-001	-5.625566621415071E-003	1.0682143E-006
2	1	0	1	8.157379793927248E+001	-1.8483303E-001	-1.8489382E-001	-5.316927815568667E-003	9.8306703E-007
2	1	0	0	8.207439792662626E+001	-1.7982705E-001	-1.7987710E-001	-5.021554937532521E-003	9.0326273E-007
2	1	0	1	8.259259791353543E+001	-1.7464508E-001	-1.7468858E-001	-4.728485182062731E-003	8.2601235E-007
2	1	0	0	8.311079790044460E+001	-1.6946304E-001	-1.6950090E-001	-4.456698444331929E-003	7.5541442E-007
2	1	0	1	8.361139788779838E+001	-1.6445704E-001	-1.6450106E-001	-4.198690038712746E-003	6.9068892E-007
2	1	0	0	8.411199787515216E+001	-1.5945099E-001	-1.5947904E-001	-3.946575454484388E-003	6.2939603E-007
2	1	0	1	8.461259786250594E+001	-1.5444496E-001	-1.5447943E-001	-3.704478259844502E-003	5.7226566E-007
2	1	0	0	8.511319784985972E+001	-1.4943895E-001	-1.4947183E-001	-3.490639543826328E-003	5.2175227E-007
2	1	0	1	8.561379783721350E+001	-1.4443290E-001	-1.4447112E-001	-3.282856754007253E-003	4.7427801E-007
2	1	0	0	8.611449782456475E+001	-1.3942593E-001	-1.3943364E-001	-3.087385943244599E-003	4.3048544E-007
2	1	0	0	8.661519781191600E+001	-1.3441896E-001	-1.3444142E-001	-2.890642946277047E-003	3.8862214E-007
2	1	0	1	8.711579779926979E+001	-1.2941292E-001	-1.2942210E-001	-2.711307517742623E-003	3.5090312E-007
2	1	0	0	8.761639778662357E+001	-1.2440688E-001	-1.2441240E-001	-2.537570369631238E-003	3.1570519E-007
2	1	0	1	8.811699777397735E+001	-1.1940086E-001	-1.1942162E-001	-2.372188993904106E-003	2.8329063E-007
2	1	0	0	8.861759776133113E+001	-1.1439487E-001	-1.1442332E-001	-2.216551992572945E-003	2.5362525E-007
2	1	0	1	8.911819774868491E+001	-1.0938886E-001	-1.0941557E-001	-2.065066703356593E-003	2.2595044E-007
2	1	0	0	8.961879773603869E+001	-1.0438285E-001	-1.0439305E-001	-1.917402839283186E-003	2.0016353E-007
2	1	0	1	9.011939772339247E+001	-9.9376820E-002	-9.9376708E-002	-1.774368664952291E-003	1.7633091E-007
2	1	0	0	9.062009771074372E+001	-9.4369859E-002	-9.4382606E-002	-1.642515087593058E-003	1.5502485E-007
2	1	0	0	9.112079769809498E+001	-8.9362845E-002	-8.9400068E-002	-1.520835694916853E-003	1.3596282E-007
2	1	0	1	9.162139768544876E+001	-8.4356830E-002	-8.4382519E-002	-1.397102884925384E-003	1.1789106E-007
2	1	0	0	9.212199767280254E+001	-7.9350844E-002	-7.9367958E-002	-1.281763670932873E-003	1.0173097E-007
2	1	0	1	9.262259766015632E+001	-7.4344769E-002	-7.4354872E-002	-1.176425037463274E-003	8.7472934E-008
2	1	0	0	9.312319764751010E+001	-6.9338791E-002	-6.9366299E-002	-1.069477100045502E-003	7.4185671E-008
2	1	0	1	9.362379763486388E+001	-6.4332776E-002	-6.4355865E-002	-9.673615939129465E-004	6.2255396E-008
2	1	0	0	9.412439762221766E+001	-5.9326757E-002	-5.9348173E-002	-8.715917138663477E-004	5.1727376E-008
2	1	0	1	9.462499760957144E+001	-5.4320727E-002	-5.4349497E-002	-7.777288885886142E-004	4.2269175E-008
2	1	0	1	9.512579759692017E+001	-4.9312774E-002	-4.9333885E-002	-6.875163444839344E-004	3.3917853E-008
2	1	0	0	9.562639758427395E+001	-4.4306736E-002	-4.4324514E-002	-6.025357803538080E-004	2.6707106E-008
2	1	0	1	9.612699757162773E+001	-3.9300740E-002	-3.9317999E-002	-5.183232608624820E-004	2.0379433E-008
2	1	0	0	9.662759755898151E+001	-3.4294732E-002	-3.4330383E-002	-4.375966027253654E-004	1.5022859E-008
2	1	0	1	9.712819754633529E+001	-2.9288735E-002	-2.9314997E-002	-3.619362285332993E-004	1.0610159E-008
2	1	0	0	9.762879753368907E+001	-2.4282685E-002	-2.4295771E-002	-2.855942294161894E-004	6.9387323E-009
2	1	0	1	9.812939752104285E+001	-1.9276686E-002	-1.9301081E-002	-2.114060343367313E-004	4.0803649E-009
2	1	0	0	9.862999750839663E+001	-1.4270687E-002	-1.4301261E-002	-1.387615556255302E-004	1.9844653E-009
2	1	0	1	9.913069749574788E+001	-9.2636403E-003	-9.3260193E-003	-6.717141092114302E-005	6.2644190E-010
2	1	0	1	9.963139748309914E+001	-4.2566941E-003	-4.3100100E-003	1.995513960622075E-006	8.6006853E-012
2	1	0	0	1.001319974704529E+002	7.4930181E-004	7.0907339E-004	7.131003953526590E-005	5.0564049E-011
2	1	0	1	1.006325974578067E+002	5.7553193E-003	5.7168952E-003	1.405161303747381E-004	8.0331597E-010
2	1	0	0	1.011331974451605E+002	1.0761313E-002	1.0741324E-002	2.095782081634066E-004	2.2511475E-009
2	1	0	1	1.016337974325143E+002	1.5767310E-002	1.5738364E-002	2.770903891057943E-004	4.3609494E-009
2	1	0	0	1.021343974198680E+002	2.0773321E-002	2.0736443E-002	3.465129224397515E-004	7.1854456E-009
2	1	0	1	1.026349974072218E+002	2.5779299E-002	2.5755929E-002	4.140977803912000E-004	1.0665473E-008
2	1	0	0	1.031355973945756E+002	3.0785277E-002	3.0756421E-002	4.839817694737742E-004	1.4885547E-008
2	1	0	1	1.036362973819269E+002	3.5792243E-002	3.5771314E-002	5.566061435570771E-004	1.9910534E-008
2	1	0	1	1.041369973692781E+002	4.0799227E-002	4.0770303E-002	6.275965692391888E-004	2.5587303E-008
2	1	0	0	1.046375973566319E+002	4.5805234E-002	4.5779541E-002	7.033171572597688E-004	3.2197537E-008
2	1	0	1	1.051381973439857E+002	5.0811235E-002	5.0772801E-002	7.763618690466260E-004	3.9418065E-008
2	1	0	0	1.056387973313394E+002	5.5817209E-002	5.5804916E-002	8.547060278591544E-004	4.7696798E-008
2	1	0	1	1.061393973186932E+002	6.0823198E-002	6.0801651E-002	9.340920319798286E-004	5.6794338E-008
2	1	0	0	1.066399973060470E+002	6.5829210E-002	6.5799087E-002	1.014651901191887E-003	6.6763171E-008
2	1	0	1	1.071405972934008E+002	7.0835195E-002	7.0803955E-002	1.097580177999304E-003	7.7713018E-008
2	1	0	0	1.076411972807546E+002	7.5841196E-002	7.5820081E-002	1.183146304704993E-003	8.9706248E-008
2	1	0	1	1.081418972681058E+002	8.0848150E-002	8.0838621E-002	1.270510409102962E-003	1.0270631E-007
2	1	0	1	1.086425972554571E+002	8.5855164E-002	8.5823581E-002	1.352903130151108E-003	1.1611099E-007
2	1	0	0	1.091431972428109E+002	9.0861149E-002	9.0842441E-002	1.447508376919322E-003	1.3149520E-007
2	1	0	1	1.096437972301646E+002	9.5867127E-002	9.5836744E-002	1.537350703478636E-003	1.4733469E-007
2	1	0	0	1.099741972218180E+002	9.9171288E-002	9.9155404E-002	1.606010444371843E-003	1.5924461E-007
2	1	0	0	1.100545972197870E+002	9.9997252E-002	9.9994197E-002	1.621556476623352E-003	1.6214624E-007