EC-Lab ASCII FILE
Nb header lines : 55                          

I-V Characterization

Run on channel : 1 (SN 6514)
User : 
CE vs. WE compliance from -10 V to 10 V
Electrode connection : standard
Ewe ctrl range : min = -1.10 V, max = 0.20 V
Safety Limits :
	Do not start on E overload
Acquisition started on : 06/15/2016 17:44:27
Saved on :
	File : B125-G54-UN-G-D1GB-C3 BW 100mVs_02_IVC_C01.mpr
	Directory : E:\EC-Lab measurements\B125-G54-UN-G-D1GB\
	Host : 10.0.2.15
Device : VSP (SN 0295)
Address : USB
EC-Lab for windows v11.01 (software)
Internet server v11.00 (firmware)
Command interpretor v11.00 (firmware)
Electrode material : 
Initial state : 
Electrolyte : 
Comments : 
Electrode surface area : 0.001 cm²
Characteristic mass : 0.001 g
Equivalent Weight : 0.000 g/eq.
Density : 0.000 g/cm3
tR (h:m:s)          0:00:0.0000         
dER/dt (mV/h)       0.0                 
dER (mV)            0                   
dtR (s)             0.0000              
dE/dt               100.000             
dE/dt unit          mV/s                
Ei (V)              -1.000              
vs.                 Ref                 
EL (V)              0.100               
vs.                 Ref                 
record              <I>                 
dI                  0.000               
unit dI             µA                  
tI (s)              0.1000              
step percent        100                 
N                   100                 
E range min (V)     -1.100              
E range max (V)     0.200               
I Range             Auto                
I Range min         Unset               
I Range max         Unset               
I Range init        Unset               
Bandwidth           5                   

mode	ox/red	error	control changes	time/s	control/V	Ewe/V	<I>/mA	P/W
2	1	0	1	1.105079972083331E+001	-1.0000324E+000	-1.0877788E+000	-3.956465050578117E-002	4.3037588E-005
2	1	0	1	1.107599972019671E+001	-9.9750626E-001	-9.9760669E-001	-1.222327013007115E+000	1.2194016E-003
2	1	0	1	1.112599971893360E+001	-9.9250454E-001	-9.9260628E-001	-1.225483436588672E+000	1.2164225E-003
2	1	0	0	1.117609971766797E+001	-9.8749369E-001	-9.8760533E-001	-1.227706331138164E+000	1.2124893E-003
2	1	0	0	1.122619971640233E+001	-9.8248625E-001	-9.8261553E-001	-1.228810224401357E+000	1.2074480E-003
2	1	0	0	1.127619971513923E+001	-9.7748393E-001	-9.7760797E-001	-1.229839955491588E+000	1.2023014E-003
2	1	0	1	1.132629971387360E+001	-9.7247505E-001	-9.7258955E-001	-1.228719848903781E+000	1.1950401E-003
2	1	0	1	1.137639971260796E+001	-9.6746522E-001	-9.6759862E-001	-1.228637431805781E+000	1.1888279E-003
2	1	0	1	1.142639971134486E+001	-9.6246314E-001	-9.6257031E-001	-1.227873090918719E+000	1.1819142E-003
2	1	0	0	1.147649971007922E+001	-9.5745587E-001	-9.5755380E-001	-1.226685151011903E+000	1.1746170E-003
2	1	0	0	1.152659970881359E+001	-9.5244461E-001	-9.5256203E-001	-1.226618906480217E+000	1.1684306E-003
2	1	0	0	1.157659970755049E+001	-9.4744354E-001	-9.4757277E-001	-1.223607148537301E+000	1.1594568E-003
2	1	0	0	1.162659970628738E+001	-9.4244629E-001	-9.4257700E-001	-1.218534195083368E+000	1.1485623E-003
2	1	0	1	1.167679970501922E+001	-9.3742388E-001	-9.3754679E-001	-1.213334540767933E+000	1.1375579E-003
2	1	0	1	1.172679970375611E+001	-9.3242466E-001	-9.3255538E-001	-1.206166891659640E+000	1.1248174E-003
2	1	0	1	1.177679970249301E+001	-9.2742527E-001	-9.2755055E-001	-1.199127087014981E+000	1.1122510E-003
2	1	0	0	1.182699970122485E+001	-9.2240310E-001	-9.2251128E-001	-1.191448575713431E+000	1.0991248E-003
2	1	0	0	1.187699969996174E+001	-9.1740555E-001	-9.1751641E-001	-1.180353630440522E+000	1.0829938E-003
2	1	0	0	1.192699969869864E+001	-9.1240484E-001	-9.1252035E-001	-1.167597297081138E+000	1.0654563E-003
2	1	0	1	1.197709969743300E+001	-9.0739322E-001	-9.0750939E-001	-1.150895560510598E+000	1.0444486E-003
2	1	0	1	1.202719969616737E+001	-9.0238613E-001	-9.0250242E-001	-1.133178218362668E+000	1.0226960E-003
2	1	0	1	1.207719969490427E+001	-8.9738405E-001	-8.9750713E-001	-1.115657815467795E+000	1.0013109E-003
2	1	0	0	1.212729969363863E+001	-8.9237440E-001	-8.9249367E-001	-1.095201484263852E+000	9.7746041E-004
2	1	0	0	1.217739969237300E+001	-8.8736516E-001	-8.8747770E-001	-1.072583911429079E+000	9.5189433E-004
2	1	0	0	1.222739969110989E+001	-8.8236326E-001	-8.8248026E-001	-1.048388808127292E+000	9.2518242E-004
2	1	0	1	1.227749968984426E+001	-8.7735534E-001	-8.7746656E-001	-1.021304122839972E+000	8.9616020E-004
2	1	0	1	1.232759968857863E+001	-8.7234485E-001	-8.7246811E-001	-9.930687832391722E-001	8.6642086E-004
2	1	0	1	1.237759968731552E+001	-8.6734319E-001	-8.6747837E-001	-9.635653702663500E-001	8.3587214E-004
2	1	0	1	1.242759968605242E+001	-8.6234623E-001	-8.6247528E-001	-9.343846559011748E-001	8.0588367E-004
2	1	0	0	1.247779968478426E+001	-8.5732418E-001	-8.5744989E-001	-9.028263315201457E-001	7.7412836E-004
2	1	0	0	1.252779968352115E+001	-8.5232413E-001	-8.5245198E-001	-8.716468745732802E-001	7.4303709E-004
2	1	0	0	1.257779968225805E+001	-8.4732533E-001	-8.4746075E-001	-8.398980250502497E-001	7.1178062E-004
2	1	0	1	1.262799968098989E+001	-8.4230310E-001	-8.4241468E-001	-8.069618416543745E-001	6.7979650E-004
2	1	0	1	1.267799967972678E+001	-8.3730525E-001	-8.3742356E-001	-7.739733756098524E-001	6.4814353E-004
2	1	0	1	1.272799967846368E+001	-8.3230478E-001	-8.3243775E-001	-7.419072791998946E-001	6.1759161E-004
2	1	0	0	1.277809967719804E+001	-8.2729280E-001	-8.2743186E-001	-7.101186602354259E-001	5.8757479E-004
2	1	0	0	1.282819967593241E+001	-8.2228631E-001	-8.2240200E-001	-6.784032150587773E-001	5.5792014E-004
2	1	0	0	1.287819967466930E+001	-8.1728399E-001	-8.1739312E-001	-6.465664152559718E-001	5.2849896E-004
2	1	0	1	1.292829967340367E+001	-8.1227374E-001	-8.1239474E-001	-6.143239704931536E-001	4.9907353E-004
2	1	0	1	1.297839967213804E+001	-8.0726546E-001	-8.0739057E-001	-5.832679423593330E-001	4.7092504E-004
2	1	0	1	1.302839967087493E+001	-8.0226326E-001	-8.0236399E-001	-5.527285349460387E-001	4.4348947E-004
2	1	0	0	1.307849966960930E+001	-7.9725486E-001	-7.9736286E-001	-5.223691396768011E-001	4.1651775E-004
2	1	0	0	1.312859966834367E+001	-7.9224491E-001	-7.9234427E-001	-4.933988871825719E-001	3.9094177E-004
2	1	0	0	1.317859966708056E+001	-7.8724283E-001	-7.8735977E-001	-4.655110875352015E-001	3.6652471E-004
2	1	0	1	1.324379966543347E+001	-7.8072459E-001	-7.8081137E-001	-4.277655971998868E-001	3.3400423E-004
2	1	0	1	1.330879966379143E+001	-7.7422565E-001	-7.7428138E-001	-3.931426233208217E-001	3.0440302E-004
2	1	0	1	1.335879966252833E+001	-7.6922417E-001	-7.6930082E-001	-3.664639220982577E-001	2.8192101E-004
2	1	0	0	1.340889966126269E+001	-7.6421309E-001	-7.6427722E-001	-3.405201898758197E-001	2.6025184E-004
2	1	0	0	1.345899965999706E+001	-7.5920594E-001	-7.5927353E-001	-3.153588477117927E-001	2.3944363E-004
2	1	0	0	1.350899965873396E+001	-7.5420326E-001	-7.5424367E-001	-2.902574514198240E-001	2.1892485E-004
2	1	0	1	1.355909965746832E+001	-7.4919462E-001	-7.4924672E-001	-2.659277948431438E-001	1.9924552E-004
2	1	0	1	1.360919965620269E+001	-7.4418515E-001	-7.4423802E-001	-2.419873502579351E-001	1.8009619E-004
2	1	0	1	1.365919965493958E+001	-7.3918247E-001	-7.3921472E-001	-2.187773607664500E-001	1.6172345E-004
2	1	0	0	1.370929965367395E+001	-7.3417521E-001	-7.3421866E-001	-1.961438689081092E-001	1.4401249E-004
2	1	0	0	1.375939965240832E+001	-7.2916424E-001	-7.2920531E-001	-1.738194879640402E-001	1.2675009E-004
2	1	0	0	1.380939965114521E+001	-7.2416270E-001	-7.2421086E-001	-1.520356880259524E-001	1.1010590E-004
2	1	0	0	1.385939964988211E+001	-7.1916598E-001	-7.1921581E-001	-1.306716372999532E-001	9.3981107E-005
2	1	0	1	1.390959964861395E+001	-7.1414351E-001	-7.1421194E-001	-1.096805434078094E-001	7.8335157E-005
2	1	0	1	1.395959964735084E+001	-7.0914406E-001	-7.0920026E-001	-8.916150897564157E-002	6.3233369E-005
2	1	0	1	1.400959964608774E+001	-7.0414495E-001	-7.0420045E-001	-6.896065121597217E-002	4.8562120E-005
2	1	0	0	1.405979964481958E+001	-6.9912267E-001	-6.9917464E-001	-4.907263377914378E-002	3.4310342E-005
2	1	0	0	1.410979964355647E+001	-6.9412482E-001	-6.9418299E-001	-2.957875324455408E-002	2.0533067E-005
2	1	0	0	1.417479964191443E+001	-6.8762225E-001	-6.8767405E-001	-4.913035175505925E-003	3.3785668E-006
2	1	0	1	1.423999964026734E+001	-6.8110448E-001	-6.8114144E-001	1.960895739579629E-002	1.3356474E-005
2	1	0	1	1.428999963900424E+001	-6.7610264E-001	-6.7615390E-001	3.800823933289151E-002	2.5699419E-005
2	1	0	1	1.433999963774113E+001	-6.7110562E-001	-6.7114717E-001	5.612395128782777E-002	3.7667432E-005
2	1	0	0	1.439019963647297E+001	-6.6608363E-001	-6.6611624E-001	7.402280625572111E-002	4.9307793E-005
2	1	0	0	1.444019963520986E+001	-6.6108352E-001	-6.6111815E-001	9.172369918635281E-002	6.0640203E-005
2	1	0	0	1.450519963356783E+001	-6.5458143E-001	-6.5461802E-001	1.146944274337984E-001	7.5081043E-005
2	1	0	1	1.457039963192074E+001	-6.4806515E-001	-6.4812428E-001	1.360897257435819E-001	8.8203058E-005
2	1	0	1	1.462039963065763E+001	-6.4306253E-001	-6.4312357E-001	1.528689736603746E-001	9.8313642E-005
2	1	0	0	1.467049962939200E+001	-6.3805479E-001	-6.3813025E-001	1.695536747848205E-001	1.0819733E-004
2	1	0	0	1.472059962812637E+001	-6.3304424E-001	-6.3312709E-001	1.861292212921914E-001	1.1784345E-004
2	1	0	0	1.477059962686326E+001	-6.2804192E-001	-6.2812251E-001	2.023421764114555E-001	1.2709567E-004
2	1	0	1	1.482069962559763E+001	-6.2303549E-001	-6.2311721E-001	2.180544522379861E-001	1.3587349E-004
2	1	0	1	1.487079962433199E+001	-6.1802357E-001	-6.1808914E-001	2.338766713159783E-001	1.4455663E-004
2	1	0	1	1.492079962306889E+001	-6.1302280E-001	-6.1311126E-001	2.494773787683569E-001	1.5295739E-004
2	1	0	1	1.497079962180578E+001	-6.0802525E-001	-6.0809517E-001	2.644437580768924E-001	1.6080697E-004
2	1	0	0	1.502099962053762E+001	-6.0300285E-001	-6.0308820E-001	2.794620028855195E-001	1.6854024E-004
2	1	0	0	1.507099961927452E+001	-5.9800440E-001	-5.9808969E-001	2.942385417464064E-001	1.7598104E-004
2	1	0	0	1.512099961801141E+001	-5.9300441E-001	-5.9307420E-001	3.090684089868532E-001	1.8330049E-004
2	1	0	1	1.517119961674325E+001	-5.8798218E-001	-5.8805919E-001	3.236214698141202E-001	1.9030858E-004
2	1	0	1	1.522119961548015E+001	-5.8298510E-001	-5.8305806E-001	3.379640147061576E-001	1.9705264E-004
2	1	0	1	1.527119961421704E+001	-5.7798368E-001	-5.7806230E-001	3.520305609466421E-001	2.0349560E-004
2	1	0	0	1.532129961295141E+001	-5.7297254E-001	-5.7304311E-001	3.663873010586527E-001	2.0995572E-004
2	1	0	0	1.537139961168577E+001	-5.6796539E-001	-5.6803983E-001	3.803407724028931E-001	2.1604871E-004
2	1	0	0	1.542139961042267E+001	-5.6296289E-001	-5.6303930E-001	3.934518474484996E-001	2.2152886E-004
2	1	0	1	1.547149960915704E+001	-5.5795401E-001	-5.5804068E-001	4.069905778857930E-001	2.2711730E-004
2	1	0	1	1.552159960789140E+001	-5.5294436E-001	-5.5303109E-001	4.200457826689270E-001	2.3229838E-004
2	1	0	1	1.557159960662830E+001	-5.4794216E-001	-5.4802018E-001	4.325811105796955E-001	2.3706318E-004
2	1	0	0	1.562169960536266E+001	-5.4293483E-001	-5.4300374E-001	4.460275362237303E-001	2.4219463E-004
2	1	0	0	1.567179960409703E+001	-5.3792381E-001	-5.3799736E-001	4.590107451557084E-001	2.4694658E-004
2	1	0	0	1.572179960283393E+001	-5.3292233E-001	-5.3300500E-001	4.715302723966364E-001	2.5132799E-004
2	1	0	0	1.577179960157082E+001	-5.2792555E-001	-5.2799463E-001	4.837325355812645E-001	2.5540817E-004
2	1	0	1	1.582199960030266E+001	-5.2290314E-001	-5.2297342E-001	4.954726933506430E-001	2.5911906E-004
2	1	0	1	1.587199959903955E+001	-5.1790357E-001	-5.1798952E-001	5.068822543248586E-001	2.6255968E-004
2	1	0	1	1.592199959777645E+001	-5.1290441E-001	-5.1298183E-001	5.188636632978350E-001	2.6616763E-004
2	1	0	0	1.597219959650829E+001	-5.0788212E-001	-5.0794715E-001	5.307790044352878E-001	2.6960767E-004
2	1	0	0	1.602219959524518E+001	-5.0288451E-001	-5.0294840E-001	5.425009687307005E-001	2.7284998E-004
2	1	0	0	1.607219959398208E+001	-4.9788380E-001	-4.9796933E-001	5.542092860666443E-001	2.7597923E-004
2	1	0	1	1.612229959271644E+001	-4.9287212E-001	-4.9293855E-001	5.654193830329945E-001	2.7871702E-004
2	1	0	1	1.617239959145081E+001	-4.8786545E-001	-4.8792985E-001	5.762622790703471E-001	2.8117557E-004
2	1	0	1	1.622239959018771E+001	-4.8286310E-001	-4.8291415E-001	5.865361707561194E-001	2.8324663E-004
2	1	0	0	1.627249958892207E+001	-4.7785330E-001	-4.7791061E-001	5.973670490911953E-001	2.8548806E-004
2	1	0	0	1.632259958765644E+001	-4.7284433E-001	-4.7289518E-001	6.077370660990467E-001	2.8739593E-004
2	1	0	0	1.637259958639333E+001	-4.6784246E-001	-4.6788403E-001	6.178656335792239E-001	2.8908945E-004
2	1	0	1	1.642269958512770E+001	-4.6283421E-001	-4.6288779E-001	6.279791130149652E-001	2.9068388E-004
2	1	0	1	1.647279958386207E+001	-4.5782402E-001	-4.5788106E-001	6.374985299649651E-001	2.9189850E-004
2	1	0	1	1.652279958259896E+001	-4.5282191E-001	-4.5287576E-001	6.468113263401296E-001	2.9292516E-004
2	1	0	1	1.657279958133586E+001	-4.4782549E-001	-4.4788143E-001	6.562824153575546E-001	2.9393670E-004
2	1	0	0	1.662299958006770E+001	-4.4280332E-001	-4.4285339E-001	6.652244673541325E-001	2.9459692E-004
2	1	0	0	1.667299957880459E+001	-4.3780297E-001	-4.3786296E-001	6.742533370940200E-001	2.9523057E-004
2	1	0	0	1.672299957754149E+001	-4.3280452E-001	-4.3285683E-001	6.829675682664043E-001	2.9562716E-004
2	1	0	1	1.677319957627333E+001	-4.2778236E-001	-4.2782679E-001	6.912528066786479E-001	2.9573648E-004
2	1	0	1	1.682319957501022E+001	-4.2278391E-001	-4.2282915E-001	7.004247810876416E-001	2.9616003E-004
2	1	0	1	1.687319957374712E+001	-4.1778401E-001	-4.1782993E-001	7.096096521058328E-001	2.9649615E-004
2	1	0	0	1.692339957247896E+001	-4.1276175E-001	-4.1281572E-001	7.179976967567185E-001	2.9640074E-004
2	1	0	0	1.697339957121585E+001	-4.0776512E-001	-4.0780839E-001	7.268530958681474E-001	2.9641678E-004
2	1	0	0	1.702339956995274E+001	-4.0276313E-001	-4.0280849E-001	7.356949190406485E-001	2.9634417E-004
2	1	0	1	1.707349956868711E+001	-3.9775267E-001	-3.9781654E-001	7.434154104651411E-001	2.9574294E-004
2	1	0	1	1.712359956742148E+001	-3.9274451E-001	-3.9279252E-001	7.509912804053345E-001	2.9498377E-004
2	1	0	1	1.717359956615837E+001	-3.8774243E-001	-3.8779125E-001	7.585786935364602E-001	2.9417017E-004
2	1	0	0	1.722369956489274E+001	-3.8273367E-001	-3.8279787E-001	7.663262269114792E-001	2.9334804E-004
2	1	0	0	1.727379956362711E+001	-3.7772414E-001	-3.7777665E-001	7.743073164526821E-001	2.9251524E-004
2	1	0	0	1.732379956236400E+001	-3.7272191E-001	-3.7279043E-001	7.810426800357355E-001	2.9116523E-004
2	1	0	1	1.737389956109837E+001	-3.6771479E-001	-3.6777094E-001	7.889115592953804E-001	2.9013873E-004
2	1	0	1	1.742399955983274E+001	-3.6270320E-001	-3.6276779E-001	7.953920417805951E-001	2.8854262E-004
2	1	0	1	1.747399955856963E+001	-3.5770229E-001	-3.5776195E-001	8.014812673012202E-001	2.8673949E-004
2	1	0	1	1.752399955730652E+001	-3.5270464E-001	-3.5275382E-001	8.075589596773378E-001	2.8486951E-004
2	1	0	0	1.757419955603837E+001	-3.4768257E-001	-3.4773624E-001	8.142140077186841E-001	2.8313173E-004
2	1	0	0	1.762419955477526E+001	-3.4268343E-001	-3.4272951E-001	8.218020010700240E-001	2.8165578E-004
2	1	0	0	1.767419955351215E+001	-3.3768415E-001	-3.3773351E-001	8.283199736534441E-001	2.7975140E-004
2	1	0	1	1.772439955224399E+001	-3.3266202E-001	-3.3270112E-001	8.338333085866001E-001	2.7741728E-004
2	1	0	1	1.777439955098089E+001	-3.2766449E-001	-3.2770780E-001	8.385150151074541E-001	2.7478792E-004
2	1	0	1	1.782439954971778E+001	-3.2266298E-001	-3.2272089E-001	8.444719709999404E-001	2.7252873E-004
2	1	0	0	1.787449954845215E+001	-3.1765187E-001	-3.1772545E-001	8.491016599210222E-001	2.6978122E-004
2	1	0	0	1.792459954718652E+001	-3.1264460E-001	-3.1270030E-001	8.541554264378277E-001	2.6709467E-004
2	1	0	0	1.797459954592341E+001	-3.0764252E-001	-3.0770552E-001	8.605746493580568E-001	2.6480356E-004
2	1	0	1	1.802469954465778E+001	-3.0263314E-001	-3.0269340E-001	8.672479035432925E-001	2.6251021E-004
2	1	0	1	1.807479954339215E+001	-2.9762399E-001	-2.9767936E-001	8.726208786951624E-001	2.5976123E-004
2	1	0	1	1.812479954212904E+001	-2.9262197E-001	-2.9268059E-001	8.775976430108594E-001	2.5685580E-004
2	1	0	0	1.817489954086341E+001	-2.8761423E-001	-2.8765801E-001	8.834601548144292E-001	2.5413439E-004
2	1	0	0	1.822499953959777E+001	-2.8260320E-001	-2.8265744E-001	8.893876950177262E-001	2.5139205E-004
2	1	0	0	1.827499953833467E+001	-2.7760151E-001	-2.7764437E-001	8.933265338547445E-001	2.4802709E-004
2	1	0	0	1.832499953707156E+001	-2.7260485E-001	-2.7265140E-001	8.976914672743206E-001	2.4475684E-004
2	1	0	1	1.837519953580340E+001	-2.6758280E-001	-2.6762527E-001	9.020316049989323E-001	2.4140645E-004
2	1	0	1	1.842519953454030E+001	-2.6258275E-001	-2.6265270E-001	9.071090126298280E-001	2.3825462E-004
2	1	0	1	1.847519953327719E+001	-2.5758418E-001	-2.5763646E-001	9.113788843109365E-001	2.3480442E-004
2	1	0	0	1.852539953200903E+001	-2.5256187E-001	-2.5261194E-001	9.142974393504346E-001	2.3096244E-004
2	1	0	0	1.857539953074593E+001	-2.4756390E-001	-2.4763450E-001	9.174357290243531E-001	2.2718874E-004
2	1	0	0	1.862539952948282E+001	-2.4256346E-001	-2.4265689E-001	9.211007268487323E-001	2.2351144E-004
2	1	0	1	1.867549952821719E+001	-2.3755114E-001	-2.3763178E-001	9.242703359814310E-001	2.1963601E-004
2	1	0	1	1.872559952695156E+001	-2.3254499E-001	-2.3263505E-001	9.290849507522969E-001	2.1613772E-004
2	1	0	1	1.877559952568845E+001	-2.2754274E-001	-2.2762506E-001	9.338069389820340E-001	2.1255786E-004
2	1	0	0	1.882569952442282E+001	-2.2253248E-001	-2.2262447E-001	9.375297950895751E-001	2.0871707E-004
2	1	0	0	1.887579952315718E+001	-2.1752426E-001	-2.1760373E-001	9.407387800631817E-001	2.0470827E-004
2	1	0	0	1.892579952189408E+001	-2.1252191E-001	-2.1259187E-001	9.430932669981296E-001	2.0049396E-004
2	1	0	1	1.897589952062845E+001	-2.0751354E-001	-2.0759037E-001	9.452746696255065E-001	1.9622991E-004
2	1	0	1	1.902599951936281E+001	-2.0250347E-001	-2.0258743E-001	9.489297768428537E-001	1.9224123E-004
2	1	0	1	1.907599951809971E+001	-1.9750120E-001	-1.9756582E-001	9.521009581159312E-001	1.8810261E-004
2	1	0	0	1.912609951683407E+001	-1.9249466E-001	-1.9256870E-001	9.537230533046266E-001	1.8365722E-004
2	1	0	0	1.917619951556844E+001	-1.8748276E-001	-1.8754786E-001	9.560019086551428E-001	1.7929611E-004
2	1	0	0	1.922619951430534E+001	-1.8248212E-001	-1.8255801E-001	9.580996902209140E-001	1.7490878E-004
2	1	0	0	1.927619951304223E+001	-1.7748453E-001	-1.7755467E-001	9.608312930983329E-001	1.7060008E-004
2	1	0	1	1.932639951177407E+001	-1.7246203E-001	-1.7252377E-001	9.630455923919685E-001	1.6614825E-004
2	1	0	1	1.937639951051096E+001	-1.6746314E-001	-1.6752316E-001	9.649605933299679E-001	1.6165325E-004
2	1	0	1	1.942639950924786E+001	-1.6246346E-001	-1.6252190E-001	9.671813505848910E-001	1.5718814E-004
2	1	0	0	1.947659950797970E+001	-1.5744117E-001	-1.5750036E-001	9.687425772877400E-001	1.5257730E-004
2	1	0	0	1.952659950671659E+001	-1.5244421E-001	-1.5250169E-001	9.706127336636978E-001	1.4802007E-004
2	1	0	0	1.957659950545349E+001	-1.4744262E-001	-1.4749491E-001	9.724800103861870E-001	1.4343586E-004
2	1	0	1	1.962669950418785E+001	-1.4243171E-001	-1.4247103E-001	9.751193269348377E-001	1.3892626E-004
2	1	0	1	1.967679950292222E+001	-1.3742447E-001	-1.3746183E-001	9.788154106232430E-001	1.3454976E-004
2	1	0	1	1.972679950165912E+001	-1.3242206E-001	-1.3244607E-001	9.822911278107682E-001	1.3010060E-004
2	1	0	0	1.977689950039348E+001	-1.2741280E-001	-1.2744565E-001	9.846066655575587E-001	1.2548384E-004
2	1	0	0	1.982699949912785E+001	-1.2240370E-001	-1.2243351E-001	9.865819573366839E-001	1.2079069E-004
2	1	0	0	1.987699949786474E+001	-1.1740141E-001	-1.1742239E-001	9.868784750241133E-001	1.1588163E-004
2	1	0	1	1.992709949659911E+001	-1.1239389E-001	-1.1243944E-001	9.895128290915025E-001	1.1126027E-004
2	1	0	1	1.997719949533348E+001	-1.0738290E-001	-1.0742844E-001	9.917969444218535E-001	1.0654720E-004
2	1	0	1	2.002719949407037E+001	-1.0238135E-001	-1.0242451E-001	9.934519765831791E-001	1.0175383E-004
2	1	0	1	2.007719949280727E+001	-9.7384550E-002	-9.7425289E-002	9.938618111670241E-001	9.6827273E-005
2	1	0	0	2.012739949153911E+001	-9.2362225E-002	-9.2407338E-002	9.955378436062396E-001	9.1995003E-005
2	1	0	0	2.017739949027600E+001	-8.7362438E-002	-8.7419547E-002	9.958272062693512E-001	8.7054766E-005
2	1	0	0	2.022739948901290E+001	-8.2363844E-002	-8.2417585E-002	9.967872228671446E-001	8.2152794E-005
2	1	0	1	2.027759948774474E+001	-7.7341571E-002	-7.7380255E-002	9.971109183648590E-001	7.7156699E-005
2	1	0	1	2.032759948648163E+001	-7.2343558E-002	-7.2373912E-002	9.974408953792366E-001	7.2188697E-005
2	1	0	1	2.037759948521852E+001	-6.7342937E-002	-6.7394271E-002	9.983094608835685E-001	6.7280336E-005
2	1	0	0	2.042769948395289E+001	-6.2330995E-002	-6.2380515E-002	9.991522453390667E-001	6.2327628E-005
2	1	0	0	2.047779948268726E+001	-5.7324454E-002	-5.7365939E-002	1.002006426427950E+000	5.7481040E-005
2	1	0	0	2.052779948142415E+001	-5.2322198E-002	-5.2366193E-002	1.004240907079641E+000	5.2588275E-005
2	1	0	1	2.057789948015852E+001	-4.7312111E-002	-4.7350105E-002	1.005520217072596E+000	4.7611487E-005
2	1	0	1	2.062799947889289E+001	-4.2303786E-002	-4.2349555E-002	1.006891585179856E+000	4.2641412E-005
2	1	0	1	2.067799947762978E+001	-3.7301525E-002	-3.7335858E-002	1.007750066354021E+000	3.7625214E-005
2	1	0	0	2.072809947636415E+001	-3.2293215E-002	-3.2352250E-002	1.010111314707105E+000	3.2679374E-005
2	1	0	0	2.077819947509852E+001	-2.7283093E-002	-2.7340865E-002	1.011575810216634E+000	2.7657357E-005
2	1	0	0	2.082819947383541E+001	-2.2280831E-002	-2.2314239E-002	1.012131304904502E+000	2.2584940E-005
2	1	0	1	2.087829947256978E+001	-1.7274337E-002	-1.7307043E-002	1.012110792923988E+000	1.7516644E-005
2	1	0	1	2.092839947130415E+001	-1.2262396E-002	-1.2314321E-002	1.012181885849376E+000	1.2464332E-005
2	1	0	1	2.097839947004104E+001	-7.2617531E-003	-7.3258877E-003	1.012221076074816E+000	7.4154177E-006
2	1	0	1	2.102839946877793E+001	-2.2639376E-003	-2.3212098E-003	1.013250121007498E+000	2.3519660E-006
2	1	0	0	2.107859946750978E+001	2.7582934E-003	2.7121853E-003	1.014359742904691E+000	2.7511314E-006
2	1	0	0	2.112859946624667E+001	7.7570956E-003	7.7057141E-003	1.015287673802781E+000	7.8235162E-006
2	1	0	0	2.117859946498356E+001	1.2756703E-002	1.2713911E-002	1.016162602747599E+000	1.2919401E-005
2	1	0	1	2.122879946371540E+001	1.7778924E-002	1.7741291E-002	1.018195851991070E+000	1.8064109E-005
2	1	0	1	2.129379946207337E+001	2.4277406E-002	2.4197586E-002	1.023679612154551E+000	2.4770576E-005
2	1	0	0	2.135889946042880E+001	3.0785946E-002	3.0690350E-002	1.020834568531024E+000	3.1329771E-005
2	1	0	0	2.140899945916317E+001	3.5797454E-002	3.5709102E-002	1.019975560902257E+000	3.6422411E-005
2	1	0	0	2.145899945790006E+001	4.0798493E-002	4.0707070E-002	1.021017333296751E+000	4.1562624E-005
2	1	0	0	2.150899945663696E+001	4.5795869E-002	4.5715343E-002	1.020993470849922E+000	4.6675068E-005
2	1	0	1	2.155919945536880E+001	5.0818086E-002	5.0729848E-002	1.021915519721471E+000	5.1841620E-005
2	1	0	1	2.160919945410569E+001	5.5817261E-002	5.5738520E-002	1.021493772136484E+000	5.6936551E-005
2	1	0	1	2.165919945284259E+001	6.0816463E-002	6.0726132E-002	1.022471325821881E+000	6.2090730E-005
2	1	0	0	2.170939945157443E+001	6.5838739E-002	6.5752804E-002	1.024435436083351E+000	6.7359506E-005
2	1	0	0	2.175939945031132E+001	7.0836112E-002	7.0744634E-002	1.024841538716186E+000	7.2502036E-005
2	1	0	0	2.180939944904821E+001	7.5837120E-002	7.5746760E-002	1.025754683028282E+000	7.7697594E-005
2	1	0	1	2.185949944778258E+001	8.0848686E-002	8.0775537E-002	1.024788613046256E+000	8.2777849E-005
2	1	0	1	2.190959944651695E+001	8.5855573E-002	8.5767940E-002	1.023227435400253E+000	8.7760112E-005
2	1	0	1	2.195959944525384E+001	9.0857968E-002	9.0779051E-002	1.024397275291383E+000	9.2993811E-005
2	1	0	0	2.200969944398821E+001	9.5867425E-002	9.5784709E-002	1.024307114660060E+000	9.8112956E-005
2	1	0	0	2.204279944315203E+001	9.9179424E-002	9.9094190E-002	1.024876941442209E+000	1.0155935E-004
2	1	0	0	2.205099944294489E+001	9.9997856E-002	9.9894553E-002	1.026194393634796E+000	1.0251123E-004