EC-Lab ASCII FILE
Nb header lines : 55                          

I-V Characterization

Run on channel : 1 (SN 6514)
User : 
CE vs. WE compliance from -10 V to 10 V
Electrode connection : standard
Ewe ctrl range : min = -1.10 V, max = 0.20 V
Safety Limits :
	Do not start on E overload
Acquisition started on : 06/15/2016 19:39:03
Saved on :
	File : B125-G54-UN-G-D1GB-C16 FW 10mVs_C01.mpr
	Directory : E:\EC-Lab measurements\B125-G54-UN-G-D1GB\
	Host : 10.0.2.15
Device : VSP (SN 0295)
Address : USB
EC-Lab for windows v11.01 (software)
Internet server v11.00 (firmware)
Command interpretor v11.00 (firmware)
Electrode material : 
Initial state : 
Electrolyte : 
Comments : 
Electrode surface area : 0.001 cm²
Characteristic mass : 0.001 g
Equivalent Weight : 0.000 g/eq.
Density : 0.000 g/cm3
tR (h:m:s)          0:00:0.0000         
dER/dt (mV/h)       0.0                 
dER (mV)            0                   
dtR (s)             0.0000              
dE/dt               10.000              
dE/dt unit          mV/s                
Ei (V)              0.100               
vs.                 Ref                 
EL (V)              -1.000              
vs.                 Ref                 
record              <I>                 
dI                  0.000               
unit dI             µA                  
tI (s)              0.1000              
step percent        100                 
N                   100                 
E range min (V)     -1.100              
E range max (V)     0.200               
I Range             Auto                
I Range min         Unset               
I Range max         Unset               
I Range init        Unset               
Bandwidth           5                   

mode	ox/red	error	control changes	time/s	control/V	Ewe/V	<I>/mA	P/W
2	0	0	0	1.449999963369919E-001	9.9096134E-002	9.8962896E-002	1.116026268005371E+000	1.1044519E-004
2	0	0	1	3.977999899507267E-001	9.6567996E-002	9.6508563E-002	1.115123241199075E+000	1.0761894E-004
2	0	0	0	8.983999773045070E-001	9.1562025E-002	9.1497272E-002	1.075429160959263E+000	9.8398836E-005
2	0	0	1	1.398999964658287E+000	8.6556040E-002	8.6489998E-002	1.034208640280371E+000	8.9448702E-005
2	0	0	0	1.899699952009541E+000	8.1549041E-002	8.1491724E-002	1.006687413810429E+000	8.2036691E-005
2	0	0	0	2.400399939360796E+000	7.6542102E-002	7.6480478E-002	9.880364878120549E-001	7.5565506E-005
2	0	0	1	2.900999926714576E+000	7.1536116E-002	7.1460217E-002	9.731397710485874E-001	6.9540780E-005
2	0	0	0	3.401599914068356E+000	6.6530131E-002	6.6478789E-002	9.621365964110424E-001	6.3961677E-005
2	0	0	1	3.902199901422136E+000	6.1524101E-002	6.1457086E-002	9.560721905678999E-001	5.8757410E-005
2	0	0	0	4.402799888775917E+000	5.6518085E-002	5.6449320E-002	9.488377013676836E-001	5.3561242E-005
2	0	0	1	4.903399876129697E+000	5.1512111E-002	5.1426101E-002	9.426915940040708E-001	4.8478953E-005
2	0	0	0	5.403999863483477E+000	4.6506125E-002	4.6429884E-002	9.381005478605431E-001	4.3555898E-005
2	0	0	1	5.904599850837258E+000	4.1500106E-002	4.1427616E-002	9.333662642758025E-001	3.8667138E-005
2	0	0	0	6.405299838188512E+000	3.6493141E-002	3.6418319E-002	9.272892758274214E-001	3.3770317E-005
2	0	0	0	6.905999825539766E+000	3.1486209E-002	3.1408384E-002	9.245204013735702E-001	2.9037692E-005
2	0	0	1	7.406599812893546E+000	2.6480207E-002	2.6403576E-002	9.189037485225580E-001	2.4262345E-005
2	0	0	0	7.907199800247326E+000	2.1474186E-002	2.1400167E-002	9.158298100071178E-001	1.9598911E-005
2	0	0	1	8.407799787601107E+000	1.6468218E-002	1.6388547E-002	9.129146774520258E-001	1.4961345E-005
2	0	0	0	8.908399774954887E+000	1.1462180E-002	1.1388077E-002	9.071905704754295E-001	1.0331157E-005
2	0	0	1	9.408999762308667E+000	6.4562061E-003	6.3701309E-003	9.041091263451864E-001	5.7592933E-006
2	0	0	0	9.909599749662448E+000	1.4497692E-003	1.3714033E-003	9.031309286676432E-001	1.2385568E-006
2	0	0	1	1.041019973701623E+001	-3.5557766E-003	-3.6331189E-003	9.019622176048532E-001	3.2769360E-006
2	0	0	0	1.091089972436748E+001	-8.5627632E-003	-8.6550964E-003	8.971696942839209E-001	7.7650902E-006
2	0	0	0	1.141159971171874E+001	-1.3569770E-002	-1.3634297E-002	8.911557317938250E-001	1.2150282E-005
2	0	0	1	1.191219969907252E+001	-1.8575810E-002	-1.8635867E-002	8.875343312800057E-001	1.6539972E-005
2	0	0	0	1.241279968642630E+001	-2.3581808E-002	-2.3645425E-002	8.851805261501808E-001	2.0930471E-005
2	0	0	1	1.291339967378008E+001	-2.8587800E-002	-2.8637636E-002	8.796806556326189E-001	2.5191976E-005
2	0	0	0	1.341399966113386E+001	-3.3593837E-002	-3.3668697E-002	8.782134142685045E-001	2.9568302E-005
2	0	0	1	1.391459964848764E+001	-3.8599845E-002	-3.8646653E-002	8.776417141849517E-001	3.3917913E-005
2	0	0	0	1.441519963584142E+001	-4.3605853E-002	-4.3663222E-002	8.735336827023570E-001	3.8141294E-005
2	0	0	1	1.491579962319520E+001	-4.8611853E-002	-4.8675608E-002	8.700557584191237E-001	4.2350493E-005
2	0	0	1	1.541659961054393E+001	-5.3619850E-002	-5.3691071E-002	8.677662866908431E-001	4.6591300E-005
2	0	0	0	1.591719959789771E+001	-5.8625840E-002	-5.8685515E-002	8.642121445081958E-001	5.0716735E-005
2	0	0	1	1.641779958525149E+001	-6.3631840E-002	-6.3706882E-002	8.592027652086056E-001	5.4737131E-005
2	0	0	0	1.691839957260527E+001	-6.8637885E-002	-6.8700336E-002	8.578090909379128E-001	5.8931771E-005
2	0	0	1	1.741899955995905E+001	-7.3643900E-002	-7.3701374E-002	8.563505451791333E-001	6.3114210E-005
2	0	0	0	1.791959954731283E+001	-7.8649938E-002	-7.8708425E-002	8.548012949152126E-001	6.7280067E-005
2	0	0	1	1.842019953466661E+001	-8.3655953E-002	-8.3723158E-002	8.498591464562129E-001	7.1152892E-005
2	0	0	0	1.892079952202039E+001	-8.8661961E-002	-8.8734604E-002	8.450257109800283E-001	7.4983021E-005
2	0	0	1	1.942149950937164E+001	-9.3668915E-002	-9.3721852E-002	8.416348572528038E-001	7.8879581E-005
2	0	0	1	1.992219949672290E+001	-9.8675951E-002	-9.8735236E-002	8.406227302392657E-001	8.2999082E-005
2	0	0	0	2.042279948407668E+001	-1.0368194E-001	-1.0374119E-001	8.405392439635655E-001	8.7198539E-005
2	0	0	1	2.092339947143046E+001	-1.0868797E-001	-1.0874109E-001	8.342819839141657E-001	9.0720729E-005
2	0	0	0	2.142399945878424E+001	-1.1369399E-001	-1.1376096E-001	8.309156959207451E-001	9.4525771E-005
2	0	0	1	2.192459944613802E+001	-1.1869998E-001	-1.1875077E-001	8.289349458686512E-001	9.8436656E-005
2	0	0	0	2.242519943349180E+001	-1.2370600E-001	-1.2377030E-001	8.253561034250438E-001	1.0215458E-004
2	0	0	1	2.292579942084558E+001	-1.2871203E-001	-1.2876621E-001	8.215473446375690E-001	1.0578753E-004
2	0	0	0	2.342639940819936E+001	-1.3371804E-001	-1.3377380E-001	8.183667881997838E-001	1.0947604E-004
2	0	0	1	2.392709939555061E+001	-1.3872500E-001	-1.3877834E-001	8.145787973523007E-001	1.1304590E-004
2	0	0	1	2.442779938290187E+001	-1.4373203E-001	-1.4380784E-001	8.122054074317493E-001	1.1680151E-004
2	0	0	0	2.492839937025565E+001	-1.4873804E-001	-1.4881320E-001	8.092083896161657E-001	1.2042089E-004
2	0	0	1	2.542899935760943E+001	-1.5374410E-001	-1.5380944E-001	8.067151820533311E-001	1.2408041E-004
2	0	0	0	2.592959934496321E+001	-1.5875009E-001	-1.5882860E-001	8.025365026014679E-001	1.2746576E-004
2	0	0	1	2.643019933231699E+001	-1.6375609E-001	-1.6385157E-001	7.989640720325895E-001	1.3091152E-004
2	0	0	0	2.693079931967077E+001	-1.6876210E-001	-1.6884680E-001	7.975997302177842E-001	1.3467217E-004
2	0	0	1	2.743139930702455E+001	-1.7376815E-001	-1.7386767E-001	7.923659333862272E-001	1.3776682E-004
2	0	0	0	2.793199929437833E+001	-1.7877416E-001	-1.7886013E-001	7.908019462911051E-001	1.4144294E-004
2	0	0	1	2.843269928172958E+001	-1.8378113E-001	-1.8387255E-001	7.879305696721897E-001	1.4487881E-004
2	0	0	1	2.893339926908084E+001	-1.8878813E-001	-1.8888891E-001	7.835437078419676E-001	1.4800271E-004
2	0	0	0	2.943399925643462E+001	-1.9379413E-001	-1.9389097E-001	7.818887724807464E-001	1.5160117E-004
2	0	0	1	2.993459924378840E+001	-1.9880015E-001	-1.9892456E-001	7.799848427592213E-001	1.5515814E-004
2	0	0	0	3.043519923114218E+001	-2.0380621E-001	-2.0391507E-001	7.755883605102412E-001	1.5815416E-004
2	0	0	1	3.093579921849596E+001	-2.0881216E-001	-2.0893726E-001	7.748814044222723E-001	1.6190160E-004
2	0	0	0	3.143639920584974E+001	-2.1381824E-001	-2.1391641E-001	7.708114993900080E-001	1.6488922E-004
2	0	0	1	3.193699919320352E+001	-2.1882422E-001	-2.1892279E-001	7.651957076390215E-001	1.6751878E-004
2	0	0	0	3.243769918055477E+001	-2.2383118E-001	-2.2393247E-001	7.618218823427672E-001	1.7059666E-004
2	0	0	0	3.293839916790603E+001	-2.2883818E-001	-2.2893177E-001	7.601559039346268E-001	1.7402384E-004
2	0	0	1	3.343899915525981E+001	-2.3384421E-001	-2.3394495E-001	7.552295708890426E-001	1.7668215E-004
2	0	0	0	3.393959914261359E+001	-2.3885021E-001	-2.3896037E-001	7.532250255883750E-001	1.7999094E-004
2	0	0	1	3.444019912996737E+001	-2.4385624E-001	-2.4395320E-001	7.490694184206159E-001	1.8273789E-004
2	0	0	0	3.494079911732115E+001	-2.4886225E-001	-2.4894331E-001	7.446402836227515E-001	1.8537322E-004
2	0	0	1	3.544139910467493E+001	-2.5386825E-001	-2.5394273E-001	7.403673697340647E-001	1.8801090E-004
2	0	0	0	3.594199909202871E+001	-2.5887424E-001	-2.5896114E-001	7.377520098098964E-001	1.9104910E-004
2	0	0	1	3.644259907938249E+001	-2.6388031E-001	-2.6396465E-001	7.340610314565446E-001	1.9376616E-004
2	0	0	0	3.694329906673374E+001	-2.6888725E-001	-2.6896799E-001	7.289646337479758E-001	1.9606815E-004
2	0	0	0	3.744399905408500E+001	-2.7389428E-001	-2.7397877E-001	7.261335980042070E-001	1.9894518E-004
2	0	0	1	3.794459904143878E+001	-2.7890033E-001	-2.7898943E-001	7.238616635539206E-001	2.0194976E-004
2	0	0	0	3.844519902879256E+001	-2.8390631E-001	-2.8399375E-001	7.192155596873313E-001	2.0425272E-004
2	0	0	1	3.894579901614634E+001	-2.8891230E-001	-2.8898683E-001	7.128945923523542E-001	2.0601715E-004
2	0	0	0	3.944639900350012E+001	-2.9391834E-001	-2.9398295E-001	7.106256852485622E-001	2.0891184E-004
2	0	0	1	3.994699899085390E+001	-2.9892442E-001	-2.9901642E-001	7.073984974366603E-001	2.1152376E-004
2	0	0	0	4.044759897820768E+001	-3.0393046E-001	-3.0401587E-001	7.024560508221902E-001	2.1355780E-004
2	0	0	1	4.094819896556146E+001	-3.0893651E-001	-3.0903134E-001	6.992741324533780E-001	2.1609761E-004
2	0	0	0	4.144889895291271E+001	-3.1394339E-001	-3.1403568E-001	6.943154484714604E-001	2.1803983E-004
2	0	0	0	4.194959894026397E+001	-3.1895047E-001	-3.1903449E-001	6.881339284356667E-001	2.1953846E-004
2	0	0	1	4.245019892761775E+001	-3.2395646E-001	-3.2404038E-001	6.851378954953962E-001	2.2201234E-004
2	0	0	0	4.295079891497153E+001	-3.2896248E-001	-3.2902646E-001	6.807694688878669E-001	2.2399117E-004
2	0	0	1	4.345139890232531E+001	-3.3396849E-001	-3.3402959E-001	6.756034868965664E-001	2.2567155E-004
2	0	0	0	4.395199888967909E+001	-3.3897448E-001	-3.3904031E-001	6.711040594665265E-001	2.2753133E-004
2	0	0	1	4.445259887703287E+001	-3.4398049E-001	-3.4405071E-001	6.647337933244266E-001	2.2870213E-004
2	0	0	0	4.495319886438665E+001	-3.4898654E-001	-3.4907433E-001	6.612516537588649E-001	2.3082599E-004
2	0	0	1	4.545379885174043E+001	-3.5399249E-001	-3.5406756E-001	6.562387236983174E-001	2.3235285E-004
2	0	0	1	4.595459883908916E+001	-3.5900047E-001	-3.5907754E-001	6.507244829576448E-001	2.3366055E-004
2	0	0	0	4.645519882644294E+001	-3.6400646E-001	-3.6408493E-001	6.471458914417667E-001	2.3561607E-004
2	0	0	1	4.695579881379672E+001	-3.6901248E-001	-3.6909005E-001	6.407699528048267E-001	2.3650182E-004
2	0	0	0	4.745639880115050E+001	-3.7401849E-001	-3.7409624E-001	6.352760373482944E-001	2.3765439E-004
2	0	0	1	4.795699878850428E+001	-3.7902457E-001	-3.7911403E-001	6.293137372632636E-001	2.3858166E-004
2	0	0	0	4.845759877585806E+001	-3.8403058E-001	-3.8410872E-001	6.230679063695668E-001	2.3932582E-004
2	0	0	1	4.895819876321184E+001	-3.8903660E-001	-3.8912386E-001	6.170893242711704E-001	2.4012418E-004
2	0	0	0	4.945879875056562E+001	-3.9404267E-001	-3.9413410E-001	6.106210895768669E-001	2.4066660E-004
2	0	0	1	4.995949873791687E+001	-3.9904964E-001	-3.9914826E-001	6.060822039620617E-001	2.4191666E-004
2	0	0	1	5.046019872526813E+001	-4.0405661E-001	-4.0414029E-001	6.019624973764248E-001	2.4327730E-004
2	0	0	0	5.096079871262191E+001	-4.0906262E-001	-4.0912810E-001	5.950006377234676E-001	2.4343148E-004
2	0	0	1	5.146139869997569E+001	-4.1406861E-001	-4.1415077E-001	5.875142243489722E-001	2.4331947E-004
2	0	0	0	5.196199868732947E+001	-4.1907459E-001	-4.1915435E-001	5.825955227221358E-001	2.4419744E-004
2	0	0	1	5.246259867468325E+001	-4.2408061E-001	-4.2415366E-001	5.757173229432309E-001	2.4419260E-004
2	0	0	0	5.296319866203703E+001	-4.2908666E-001	-4.2916670E-001	5.674879091965819E-001	2.4354692E-004
2	0	0	1	5.346379864939081E+001	-4.3409261E-001	-4.3416899E-001	5.615090976943247E-001	2.4378984E-004
2	0	0	0	5.396439863674459E+001	-4.3909863E-001	-4.3917057E-001	5.550430422071900E-001	2.4375856E-004
2	0	0	1	5.446509862409584E+001	-4.4410557E-001	-4.4416675E-001	5.463411317937927E-001	2.4266656E-004
2	0	0	1	5.496579861144710E+001	-4.4911259E-001	-4.4919115E-001	5.396527456099935E-001	2.4240724E-004
2	0	0	0	5.546639859880088E+001	-4.5411861E-001	-4.5420250E-001	5.332832798612355E-001	2.4221859E-004
2	0	0	1	5.596699858615466E+001	-4.5912462E-001	-4.5921028E-001	5.244554113306616E-001	2.4083532E-004
2	0	0	0	5.646759857350844E+001	-4.6413067E-001	-4.6421582E-001	5.154949008890846E-001	2.3930089E-004
2	0	0	1	5.696819856086222E+001	-4.6913669E-001	-4.6922517E-001	5.087918406198586E-001	2.3873794E-004
2	0	0	0	5.746879854821600E+001	-4.7414276E-001	-4.7422022E-001	5.019783395818945E-001	2.3804828E-004
2	0	0	1	5.796939853556978E+001	-4.7914875E-001	-4.7923219E-001	4.928663584703799E-001	2.3619742E-004
2	0	0	0	5.848759852247895E+001	-4.8433077E-001	-4.8440224E-001	4.834737143162577E-001	2.3419574E-004
2	0	0	1	5.900579850938811E+001	-4.8951274E-001	-4.8956460E-001	4.760701940631917E-001	2.3306711E-004
2	0	0	0	5.950639849674189E+001	-4.9451873E-001	-4.9457771E-001	4.659943976864769E-001	2.3047044E-004
2	0	0	1	6.000699848409567E+001	-4.9952471E-001	-4.9957141E-001	4.569518293383485E-001	2.2828007E-004
2	0	0	0	6.050759847144946E+001	-5.0453073E-001	-5.0459355E-001	4.476905192562510E-001	2.2590175E-004
2	0	0	1	6.100819845880324E+001	-5.0953674E-001	-5.0959128E-001	4.380037334580980E-001	2.2320288E-004
2	0	0	0	6.150879844615702E+001	-5.1454276E-001	-5.1461524E-001	4.268924038383437E-001	2.1968533E-004
2	0	0	1	6.200939843351080E+001	-5.1954877E-001	-5.1961702E-001	4.178082508226861E-001	2.1710029E-004
2	0	0	0	6.251009842086205E+001	-5.2455574E-001	-5.2459770E-001	4.074004879348949E-001	2.1372136E-004
2	0	0	0	6.301079840821330E+001	-5.2956277E-001	-5.2960914E-001	3.971346660088102E-001	2.1032615E-004
2	0	0	1	6.351139839556708E+001	-5.3456885E-001	-5.3461570E-001	3.871467536584063E-001	2.0697473E-004
2	0	0	0	6.401199838292087E+001	-5.3957480E-001	-5.3963327E-001	3.764720262014649E-001	2.0315683E-004
2	0	0	1	6.451259837027465E+001	-5.4458082E-001	-5.4463565E-001	3.648542285882677E-001	1.9871262E-004
2	0	0	0	6.501319835762843E+001	-5.4958677E-001	-5.4963839E-001	3.532244519197763E-001	1.9414572E-004
2	0	0	1	6.551379834498221E+001	-5.5459285E-001	-5.5465698E-001	3.414219283838542E-001	1.8937206E-004
2	0	0	0	6.601439833233599E+001	-5.5959892E-001	-5.5965412E-001	3.303265617405460E-001	1.8486862E-004
2	0	0	1	6.651509831968724E+001	-5.6460589E-001	-5.6465137E-001	3.189226065119926E-001	1.8008008E-004
2	0	0	1	6.701579830703849E+001	-5.6961292E-001	-5.6966335E-001	3.060232846621416E-001	1.7433024E-004
2	0	0	0	6.751639829439227E+001	-5.7461900E-001	-5.7468355E-001	2.943184294640364E-001	1.6913995E-004
2	0	0	1	6.801699828174606E+001	-5.7962507E-001	-5.7966858E-001	2.817772472433537E-001	1.6333742E-004
2	0	0	0	6.851759826909984E+001	-5.8463097E-001	-5.8466661E-001	2.677793255091507E-001	1.5656163E-004
2	0	0	1	6.901819825645362E+001	-5.8963698E-001	-5.8970386E-001	2.547302875669850E-001	1.5021543E-004
2	0	0	0	6.951879824380740E+001	-5.9464300E-001	-5.9470034E-001	2.407100890816301E-001	1.4315038E-004
2	0	0	1	7.001939823116118E+001	-5.9964907E-001	-5.9971130E-001	2.270593390599731E-001	1.3617006E-004
2	0	0	0	7.051999821851496E+001	-6.0465491E-001	-6.0471070E-001	2.123754618526428E-001	1.2842572E-004
2	0	0	1	7.102069820586621E+001	-6.0966206E-001	-6.0972005E-001	1.988963275895048E-001	1.2127108E-004
2	0	0	1	7.152139819321746E+001	-6.1466902E-001	-6.1474091E-001	1.850182894609560E-001	1.1373831E-004
2	0	0	0	7.202199818057125E+001	-6.1967510E-001	-6.1973548E-001	1.697505127151475E-001	1.0520042E-004
2	0	0	1	7.252259816792503E+001	-6.2468094E-001	-6.2474722E-001	1.554055874350113E-001	9.7089207E-005
2	0	0	0	7.302319815527881E+001	-6.2968713E-001	-6.2974608E-001	1.401975166242602E-001	8.8288834E-005
2	0	0	1	7.352379814263259E+001	-6.3469303E-001	-6.3475561E-001	1.234603539991703E-001	7.8367149E-005
2	0	0	0	7.402439812998637E+001	-6.3969916E-001	-6.3973796E-001	1.072394346592203E-001	6.8605135E-005
2	0	0	1	7.452499811734015E+001	-6.4470506E-001	-6.4474756E-001	9.092326089960068E-002	5.8622551E-005
2	0	0	0	7.502559810469393E+001	-6.4971119E-001	-6.4974433E-001	7.501833713297335E-002	4.8742739E-005
2	0	0	1	7.552629809204518E+001	-6.5471822E-001	-6.5475368E-001	5.880554233226265E-002	3.8503145E-005
2	0	0	1	7.604449807895435E+001	-6.5990025E-001	-6.5991294E-001	4.046789512987095E-002	2.6705287E-005
2	0	0	1	7.656259806586604E+001	-6.6508126E-001	-6.6510850E-001	2.295399263431182E-002	1.5266896E-005
2	0	0	0	7.706319805321982E+001	-6.7008728E-001	-6.7010373E-001	5.132379195549111E-003	3.4392265E-006
2	0	0	1	7.756379804057360E+001	-6.7509335E-001	-6.7511529E-001	-1.314239844373377E-002	8.8726338E-006
2	0	0	0	7.806439802792738E+001	-6.8009919E-001	-6.8012047E-001	-3.156808094387337E-002	2.1470098E-005
2	0	0	1	7.856499801528116E+001	-6.8510532E-001	-6.8511707E-001	-5.006567767315762E-002	3.4300851E-005
2	0	0	0	7.906569800263242E+001	-6.9011211E-001	-6.9012278E-001	-6.882131914018563E-002	4.7495159E-005
2	0	0	0	7.956639798998367E+001	-6.9511920E-001	-6.9514048E-001	-8.826882597363994E-002	6.1359235E-005
2	0	0	1	8.008199797695852E+001	-7.0027518E-001	-7.0029813E-001	-1.079371799864781E-001	7.5588207E-005
2	0	0	0	8.059759796393337E+001	-7.0543134E-001	-7.0546079E-001	-1.284936843083353E-001	9.0647256E-005
2	0	0	1	8.109819795128715E+001	-7.1043724E-001	-7.1048039E-001	-1.488859292040359E-001	1.0578053E-004
2	0	0	0	8.159879793864093E+001	-7.1544331E-001	-7.1548045E-001	-1.690837518439410E-001	1.2097612E-004
2	0	0	1	8.209939792599471E+001	-7.2044909E-001	-7.2048295E-001	-1.896742549140518E-001	1.3665707E-004
2	0	0	0	8.260009791334596E+001	-7.2545636E-001	-7.2547883E-001	-2.109523291755646E-001	1.5304144E-004
2	0	0	0	8.310079790069722E+001	-7.3046321E-001	-7.3048651E-001	-2.325483508168262E-001	1.6987343E-004
2	0	0	1	8.360139788805100E+001	-7.3546940E-001	-7.3549181E-001	-2.539467045416748E-001	1.8677572E-004
2	0	0	0	8.410199787540478E+001	-7.4047530E-001	-7.4050093E-001	-2.760662068185047E-001	2.0442728E-004
2	0	0	1	8.460259786275856E+001	-7.4548143E-001	-7.4550503E-001	-2.986589198878162E-001	2.2265172E-004
2	0	0	0	8.510319785011234E+001	-7.5048751E-001	-7.5051075E-001	-3.210040546280268E-001	2.4091700E-004
2	0	0	1	8.560379783746612E+001	-7.5549334E-001	-7.5552624E-001	-3.438875864629818E-001	2.5981609E-004
2	0	0	0	8.610439782481990E+001	-7.6049954E-001	-7.6053655E-001	-3.670348229966416E-001	2.7914339E-004
2	0	0	1	8.660499781217368E+001	-7.6550531E-001	-7.6555002E-001	-3.907898678840890E-001	2.9916919E-004
2	0	0	1	8.710579779952241E+001	-7.7051347E-001	-7.7056479E-001	-4.144771061532051E-001	3.1938148E-004
2	0	0	0	8.760639778687619E+001	-7.7551925E-001	-7.7556098E-001	-4.388412136671906E-001	3.4034811E-004
2	0	0	1	8.810699777422997E+001	-7.8052545E-001	-7.8057468E-001	-4.632560978870650E-001	3.6160598E-004
2	0	0	0	8.860759776158375E+001	-7.8553134E-001	-7.8558373E-001	-4.880479615189208E-001	3.8340254E-004
2	0	0	1	8.910819774893753E+001	-7.9053742E-001	-7.9058170E-001	-5.131201122637388E-001	4.0566336E-004
2	0	0	0	8.960879773629131E+001	-7.9554325E-001	-7.9558599E-001	-5.386282404988396E-001	4.2852509E-004
2	0	0	1	9.010939772364509E+001	-8.0054951E-001	-8.0058295E-001	-5.641558743262378E-001	4.5165358E-004
2	0	0	0	9.060999771099887E+001	-8.0555546E-001	-8.0560857E-001	-5.904523010928848E-001	4.7567344E-004
2	0	0	1	9.111069769835012E+001	-8.1056255E-001	-8.1062061E-001	-6.164865008401268E-001	4.9973663E-004
2	0	0	1	9.161139768570138E+001	-8.1556934E-001	-8.1563950E-001	-6.428843708692464E-001	5.2436191E-004
2	0	0	0	9.211199767305516E+001	-8.2057548E-001	-8.2062954E-001	-6.694539552856522E-001	5.4937368E-004
2	0	0	1	9.261259766040894E+001	-8.2558143E-001	-8.2564372E-001	-6.963405648995664E-001	5.7492923E-004
2	0	0	0	9.311319764776272E+001	-8.3058757E-001	-8.3065861E-001	-7.235819925235862E-001	6.0104963E-004
2	0	0	1	9.361379763511650E+001	-8.3559352E-001	-8.3565295E-001	-7.513592422248490E-001	6.2787556E-004
2	0	0	0	9.411439762247028E+001	-8.4059948E-001	-8.4064084E-001	-7.795250355656833E-001	6.5530057E-004
2	0	0	1	9.461499760982406E+001	-8.4560567E-001	-8.4566224E-001	-8.072410370222194E-001	6.8265328E-004
2	0	0	0	9.511559759717784E+001	-8.5061145E-001	-8.5066837E-001	-8.360482656790342E-001	7.1119983E-004
2	0	0	1	9.561629758452909E+001	-8.5561860E-001	-8.5567993E-001	-8.649195949546025E-001	7.4009434E-004
2	0	0	1	9.611699757188035E+001	-8.6062533E-001	-8.6069167E-001	-8.939817920565591E-001	7.6944270E-004
2	0	0	0	9.661759755923413E+001	-8.6563164E-001	-8.6569798E-001	-9.230316864474429E-001	7.9906668E-004
2	0	0	1	9.711819754658791E+001	-8.7063736E-001	-8.7070656E-001	-9.526337485505740E-001	8.2946446E-004
2	0	0	0	9.761879753394169E+001	-8.7564361E-001	-8.7568569E-001	-9.824256981496564E-001	8.6029613E-004
2	0	0	1	9.811939752129547E+001	-8.8064945E-001	-8.8067609E-001	-1.012524217738331E+000	8.9170586E-004
2	0	0	0	9.863749750820716E+001	-8.8583076E-001	-8.8592547E-001	-1.043871260350267E+000	9.2479214E-004
2	0	0	0	9.915569749511633E+001	-8.9101231E-001	-8.9110935E-001	-1.075629004182213E+000	9.5850305E-004
2	0	0	0	9.965639748246758E+001	-8.9601970E-001	-8.9611447E-001	-1.106276069173166E+000	9.9135004E-004
2	0	0	1	1.001569974698214E+002	-9.0102547E-001	-9.0112239E-001	-1.138032790188368E+000	1.0255069E-003
2	0	0	0	1.006575974571751E+002	-9.0603167E-001	-9.0613341E-001	-1.169437731095698E+000	1.0596666E-003
2	0	0	1	1.011581974445289E+002	-9.1103745E-001	-9.1115284E-001	-1.200604187774508E+000	1.0939339E-003
2	0	0	0	1.016587974318827E+002	-9.1604364E-001	-9.1613644E-001	-1.232440582201169E+000	1.1290837E-003
2	0	0	1	1.021593974192365E+002	-9.2104971E-001	-9.2113757E-001	-1.264663589511999E+000	1.1649291E-003
2	0	0	0	1.026599974065903E+002	-9.2605561E-001	-9.2614794E-001	-1.296264475854755E+000	1.2005327E-003
2	0	0	1	1.031605973939440E+002	-9.3106174E-001	-9.3116838E-001	-1.327986881061495E+000	1.2365794E-003
2	0	0	0	1.036612973812953E+002	-9.3606859E-001	-9.3616778E-001	-1.361834432357554E+000	1.2749055E-003
2	0	0	0	1.041619973686466E+002	-9.4107574E-001	-9.4118226E-001	-1.395190886274808E+000	1.3131289E-003
2	0	0	1	1.046625973560003E+002	-9.4608146E-001	-9.4618511E-001	-1.427728198018832E+000	1.3508952E-003
2	0	0	0	1.051631973433541E+002	-9.5108777E-001	-9.5119160E-001	-1.461883781005911E+000	1.3905315E-003
2	0	0	1	1.056637973307079E+002	-9.5609343E-001	-9.5616674E-001	-1.495734376920922E+000	1.4301714E-003
2	0	0	0	1.061643973180617E+002	-9.6109974E-001	-9.6117944E-001	-1.529523041476633E+000	1.4701461E-003
2	0	0	1	1.066649973054155E+002	-9.6610540E-001	-9.6621299E-001	-1.562967486609892E+000	1.5101595E-003
2	0	0	0	1.071655972927692E+002	-9.7111183E-001	-9.7121650E-001	-1.597347740510312E+000	1.5513705E-003
2	0	0	1	1.076662972801205E+002	-9.7611851E-001	-9.7620958E-001	-1.632690012102749E+000	1.5938476E-003
2	0	0	1	1.081669972674717E+002	-9.8112559E-001	-9.8122960E-001	-1.666869946618000E+000	1.6355822E-003
2	0	0	0	1.086675972548255E+002	-9.8613143E-001	-9.8624426E-001	-1.701041473489324E+000	1.6776423E-003
2	0	0	1	1.091681972421793E+002	-9.9113768E-001	-9.9122560E-001	-1.735793469858343E+000	1.7205629E-003
2	0	0	0	1.096687972295331E+002	-9.9614364E-001	-9.9623716E-001	-1.770915906649797E+000	1.7642522E-003
2	0	0	1	1.099866972215023E+002	-9.9932134E-001	-9.9939275E-001	-1.794925515419738E+000	1.7938355E-003
2	0	0	0	1.100521972198476E+002	-1.0000215E+000	-1.0001906E+000	-1.803787410259247E+000	1.8041312E-003