EC-Lab ASCII FILE
Nb header lines : 55                          

I-V Characterization

Run on channel : 1 (SN 6514)
User : 
CE vs. WE compliance from -10 V to 10 V
Electrode connection : standard
Ewe ctrl range : min = -1.10 V, max = 0.20 V
Safety Limits :
	Do not start on E overload
Acquisition started on : 06/15/2016 19:06:42
Saved on :
	File : B125-G54-UN-G-D1GB-C14 FW 10mVs dark_C01.mpr
	Directory : E:\EC-Lab measurements\B125-G54-UN-G-D1GB\
	Host : 10.0.2.15
Device : VSP (SN 0295)
Address : USB
EC-Lab for windows v11.01 (software)
Internet server v11.00 (firmware)
Command interpretor v11.00 (firmware)
Electrode material : 
Initial state : 
Electrolyte : 
Comments : 
Electrode surface area : 0.001 cm²
Characteristic mass : 0.001 g
Equivalent Weight : 0.000 g/eq.
Density : 0.000 g/cm3
tR (h:m:s)          0:00:0.0000         
dER/dt (mV/h)       0.0                 
dER (mV)            0                   
dtR (s)             0.0000              
dE/dt               10.000              
dE/dt unit          mV/s                
Ei (V)              0.100               
vs.                 Ref                 
EL (V)              -1.000              
vs.                 Ref                 
record              <I>                 
dI                  0.000               
unit dI             µA                  
tI (s)              0.1000              
step percent        100                 
N                   100                 
E range min (V)     -1.100              
E range max (V)     0.200               
I Range             Auto                
I Range min         Unset               
I Range max         Unset               
I Range init        Unset               
Bandwidth           5                   

mode	ox/red	error	control changes	time/s	control/V	Ewe/V	<I>/mA	P/W
2	0	0	0	8.499999785271939E-002	9.9696882E-002	9.9707723E-002	1.593667455017565E-003	1.5890095E-007
2	0	0	1	3.552999910243670E-001	9.6993022E-002	9.6977040E-002	9.395816135109678E-004	9.1117840E-008
2	0	0	1	8.733999779360602E-001	9.1812029E-002	9.1781676E-002	5.550852695750241E-004	5.0946657E-008
2	0	0	0	1.373999965289840E+000	8.6806051E-002	8.6779997E-002	4.595800639305178E-004	3.9882355E-008
2	0	0	1	1.874599952643621E+000	8.1800044E-002	8.1777520E-002	4.091980740694185E-004	3.3463206E-008
2	0	0	0	2.375199939997401E+000	7.6794043E-002	7.6773919E-002	3.697109634168694E-004	2.8384159E-008
2	0	0	0	2.875999927346129E+000	7.1786121E-002	7.1757473E-002	3.331047563815102E-004	2.3902755E-008
2	0	0	1	3.376599914699909E+000	6.6780135E-002	6.6754140E-002	3.008164699246111E-004	2.0080744E-008
2	0	0	0	3.877199902053690E+000	6.1774112E-002	6.1752319E-002	2.720891592904590E-004	1.6802137E-008
2	0	0	1	4.377799889407470E+000	5.6768093E-002	5.6739680E-002	2.464283338871423E-004	1.3982265E-008
2	0	0	0	4.878399876761250E+000	5.1762115E-002	5.1738460E-002	2.195382387555309E-004	1.1358570E-008
2	0	0	1	5.378999864115031E+000	4.6756130E-002	4.6731584E-002	1.939062351949196E-004	9.0615453E-009
2	0	0	0	5.879599851468811E+000	4.1750122E-002	4.1706800E-002	1.670442620336091E-004	6.9668817E-009
2	0	0	1	6.380199838822591E+000	3.6744118E-002	3.6744975E-002	1.406894183297875E-004	5.1696292E-009
2	0	0	0	6.880899826173845E+000	3.1737167E-002	3.1723294E-002	1.173283474505799E-004	3.7220418E-009
2	0	0	0	7.381599813525099E+000	2.6730217E-002	2.6697367E-002	9.380063904411646E-005	2.5042302E-009
2	0	0	1	7.882199800878880E+000	2.1724198E-002	2.1693623E-002	7.025247838224010E-005	1.5240308E-009
2	0	0	0	8.382799788232660E+000	1.6718226E-002	1.6704706E-002	4.755167913538209E-005	7.9433682E-010
2	0	0	1	8.883399775586440E+000	1.1712189E-002	1.1687349E-002	2.597507779084610E-005	3.0357980E-010
2	0	0	0	9.383999762940221E+000	6.7062140E-003	6.6570439E-003	4.172769153551343E-006	2.7778307E-011
2	0	0	1	9.884599750294001E+000	1.6997777E-003	1.6625186E-003	-1.721101494576874E-005	2.8613632E-011
2	0	0	0	1.038519973764778E+001	-3.3057677E-003	-3.3374294E-003	-3.845417566580682E-005	1.2833809E-010
2	0	0	1	1.088579972500156E+001	-8.3118044E-003	-8.3639491E-003	-5.931650753576137E-005	4.9612026E-010
2	0	0	0	1.138649971235282E+001	-1.3318791E-002	-1.3344630E-002	-7.990078908305079E-005	1.0662464E-009
2	0	0	0	1.188719969970407E+001	-1.8325802E-002	-1.8345844E-002	-9.995266599444779E-005	1.8337161E-009
2	0	0	1	1.238779968705785E+001	-2.3331800E-002	-2.3355165E-002	-1.204486026588151E-004	2.8130971E-009
2	0	0	0	1.288839967441163E+001	-2.8337793E-002	-2.8356122E-002	-1.412583732317684E-004	4.0055395E-009
2	0	0	1	1.338899966176541E+001	-3.3343829E-002	-3.3367205E-002	-1.619278049094468E-004	5.4030784E-009
2	0	0	0	1.388959964911919E+001	-3.8349833E-002	-3.8366150E-002	-1.830297010624749E-004	7.0221451E-009
2	0	0	1	1.439019963647297E+001	-4.3355845E-002	-4.3373756E-002	-2.041986809016233E-004	8.8568637E-009
2	0	0	0	1.489079962382675E+001	-4.8361842E-002	-4.8390429E-002	-2.252559524544048E-004	1.0900233E-008
2	0	0	1	1.539139961118053E+001	-5.3367905E-002	-5.3383857E-002	-2.483901508960953E-004	1.3260024E-008
2	0	0	0	1.589209959853179E+001	-5.8374841E-002	-5.8394596E-002	-2.717583708317676E-004	1.5869221E-008
2	0	0	0	1.639279958588304E+001	-6.3381836E-002	-6.3409209E-002	-2.932077094428571E-004	1.8592068E-008
2	0	0	1	1.689339957323682E+001	-6.8387873E-002	-6.8394311E-002	-3.165595539105833E-004	2.1650873E-008
2	0	0	0	1.739399956059060E+001	-7.3393889E-002	-7.3409542E-002	-3.403200187392379E-004	2.4982738E-008
2	0	0	1	1.789459954794438E+001	-7.8399934E-002	-7.8419216E-002	-3.659265517221930E-004	2.8695673E-008
2	0	0	0	1.839519953529816E+001	-8.3405934E-002	-8.3423376E-002	-3.881450667953651E-004	3.2380370E-008
2	0	0	1	1.889579952265194E+001	-8.8411950E-002	-8.8443525E-002	-4.136107440711117E-004	3.6581191E-008
2	0	0	0	1.939639951000572E+001	-9.3417943E-002	-9.3425229E-002	-4.418882773777558E-004	4.1283513E-008
2	0	0	1	1.989699949735950E+001	-9.8423980E-002	-9.8425962E-002	-4.702311989036686E-004	4.6282960E-008
2	0	0	1	2.039779948470823E+001	-1.0343193E-001	-1.0343891E-001	-4.956309782477228E-004	5.1267527E-008
2	0	0	0	2.089839947206201E+001	-1.0843797E-001	-1.0845940E-001	-5.218105269240159E-004	5.6595255E-008
2	0	0	1	2.139899945941579E+001	-1.1344399E-001	-1.1346789E-001	-5.506730793874773E-004	6.2483714E-008
2	0	0	0	2.189959944676957E+001	-1.1844996E-001	-1.1846660E-001	-5.851126177602445E-004	6.9316300E-008
2	0	0	1	2.240019943412335E+001	-1.2345599E-001	-1.2347014E-001	-6.115623999516831E-004	7.5509689E-008
2	0	0	0	2.290079942147713E+001	-1.2846203E-001	-1.2848124E-001	-6.436303495658199E-004	8.2694427E-008
2	0	0	1	2.340139940883091E+001	-1.3346803E-001	-1.3347834E-001	-6.758280050010619E-004	9.0208403E-008
2	0	0	0	2.390199939618469E+001	-1.3847402E-001	-1.3847956E-001	-7.057471132589114E-004	9.7731551E-008
2	0	0	1	2.440269938353595E+001	-1.4348108E-001	-1.4350514E-001	-7.369790384862164E-004	1.0576028E-007
2	0	0	1	2.490339937088720E+001	-1.4848803E-001	-1.4850788E-001	-7.688473534280575E-004	1.1417989E-007
2	0	0	0	2.540399935824098E+001	-1.5349407E-001	-1.5351608E-001	-8.035307357655971E-004	1.2335489E-007
2	0	0	1	2.590459934559476E+001	-1.5850008E-001	-1.5853021E-001	-8.431840690031817E-004	1.3367014E-007
2	0	0	0	2.640519933294854E+001	-1.6350608E-001	-1.6353400E-001	-8.803433276653901E-004	1.4396606E-007
2	0	0	1	2.690579932030232E+001	-1.6851209E-001	-1.6854672E-001	-9.176494330376955E-004	1.5466681E-007
2	0	0	0	2.740639930765610E+001	-1.7351815E-001	-1.7356811E-001	-9.526216304470987E-004	1.6534474E-007
2	0	0	1	2.790699929500988E+001	-1.7852414E-001	-1.7856584E-001	-9.970113287783517E-004	1.7803217E-007
2	0	0	0	2.840759928236366E+001	-1.8353018E-001	-1.8357944E-001	-1.041385303867503E-003	1.9117694E-007
2	0	0	1	2.890829926971492E+001	-1.8853714E-001	-1.8859600E-001	-1.080359179665969E-003	2.0375141E-007
2	0	0	1	2.940899925706617E+001	-1.9354412E-001	-1.9359757E-001	-1.123459425444392E-003	2.1749902E-007
2	0	0	0	2.990959924441995E+001	-1.9855015E-001	-1.9859441E-001	-1.164569064790505E-003	2.3127690E-007
2	0	0	1	3.041019923177373E+001	-2.0355619E-001	-2.0361802E-001	-1.210013846584921E-003	2.4638064E-007
2	0	0	0	3.091079921912751E+001	-2.0856215E-001	-2.0862053E-001	-1.258230589938333E-003	2.6249273E-007
2	0	0	1	3.141139920648129E+001	-2.1356824E-001	-2.1361548E-001	-1.302471596136435E-003	2.7822810E-007
2	0	0	0	3.191199919383507E+001	-2.1857421E-001	-2.1862875E-001	-1.352170192801653E-003	2.9562327E-007
2	0	0	1	3.241259918118885E+001	-2.2358017E-001	-2.2364135E-001	-1.400488427903424E-003	3.1320712E-007
2	0	0	0	3.291319916854263E+001	-2.2858624E-001	-2.2864701E-001	-1.450308955070939E-003	3.3160882E-007
2	0	0	1	3.341389915589389E+001	-2.3359321E-001	-2.3365878E-001	-1.505074732580946E-003	3.5167392E-007
2	0	0	1	3.391459914324514E+001	-2.3860022E-001	-2.3865329E-001	-1.556061536814752E-003	3.7135919E-007
2	0	0	0	3.441519913059892E+001	-2.4360624E-001	-2.4366775E-001	-1.608870613239260E-003	3.9202988E-007
2	0	0	1	3.491579911795270E+001	-2.4861224E-001	-2.4864727E-001	-1.666878951458752E-003	4.1446489E-007
2	0	0	0	3.541639910530648E+001	-2.5361827E-001	-2.5365266E-001	-1.730817172729559E-003	4.3902639E-007
2	0	0	1	3.591699909266026E+001	-2.5862426E-001	-2.5865665E-001	-1.799039673091582E-003	4.6533358E-007
2	0	0	0	3.641759908001404E+001	-2.6363027E-001	-2.6367459E-001	-1.870769739207582E-003	4.9327446E-007
2	0	0	1	3.691819906736782E+001	-2.6863626E-001	-2.6867586E-001	-1.925600589449220E-003	5.1736242E-007
2	0	0	0	3.741879905472160E+001	-2.7364233E-001	-2.7367279E-001	-1.989631601852573E-003	5.4450805E-007
2	0	0	0	3.791959904207033E+001	-2.7865031E-001	-2.7868897E-001	-2.054779777545835E-003	5.7264447E-007
2	0	0	1	3.842019902942411E+001	-2.8365627E-001	-2.8369126E-001	-2.125748271711685E-003	6.0305621E-007
2	0	0	0	3.892079901677789E+001	-2.8866231E-001	-2.8869417E-001	-2.190060055819176E-003	6.3225758E-007
2	0	0	1	3.942139900413167E+001	-2.9366833E-001	-2.9369548E-001	-2.257555196039457E-003	6.6303375E-007
2	0	0	0	3.992199899148545E+001	-2.9867443E-001	-2.9871517E-001	-2.332240265068994E-003	6.9667556E-007
2	0	0	1	4.042259897883923E+001	-3.0368048E-001	-3.0372250E-001	-2.416884747520945E-003	7.3406227E-007
2	0	0	0	4.092319896619301E+001	-3.0868647E-001	-3.0870861E-001	-2.495170002677925E-003	7.7028045E-007
2	0	0	1	4.142379895354679E+001	-3.1369245E-001	-3.1372303E-001	-2.574914519337022E-003	8.0780995E-007
2	0	0	0	4.192449894089805E+001	-3.1869951E-001	-3.1874067E-001	-2.666867806433021E-003	8.5003921E-007
2	0	0	0	4.242519892824930E+001	-3.2370645E-001	-3.2374543E-001	-2.748729885073419E-003	8.8988872E-007
2	0	0	1	4.292579891560308E+001	-3.2871246E-001	-3.2871470E-001	-2.828862114236011E-003	9.2988853E-007
2	0	0	0	4.342639890295686E+001	-3.3371848E-001	-3.3373639E-001	-2.909534907222719E-003	9.7101770E-007
2	0	0	1	4.392699889031064E+001	-3.3872449E-001	-3.3874118E-001	-2.995648908240240E-003	1.0147496E-006
2	0	0	0	4.442759887766442E+001	-3.4373048E-001	-3.4374222E-001	-3.095767104402729E-003	1.0641459E-006
2	0	0	1	4.492819886501820E+001	-3.4873649E-001	-3.4876421E-001	-3.191020625641045E-003	1.1129138E-006
2	0	0	0	4.542879885237198E+001	-3.5374245E-001	-3.5377425E-001	-3.282457532611041E-003	1.1612490E-006
2	0	0	1	4.592939883972576E+001	-3.5874847E-001	-3.5879043E-001	-3.384695915222544E-003	1.2143965E-006
2	0	0	0	4.643009882707702E+001	-3.6375543E-001	-3.6379936E-001	-3.472047235218191E-003	1.2631285E-006
2	0	0	0	4.693079881442827E+001	-3.6876246E-001	-3.6879808E-001	-3.572916816196432E-003	1.3176849E-006
2	0	0	1	4.743139880178205E+001	-3.7376851E-001	-3.7379205E-001	-3.682905445715264E-003	1.3766407E-006
2	0	0	0	4.793199878913583E+001	-3.7877455E-001	-3.7881729E-001	-3.798727497851449E-003	1.4390237E-006
2	0	0	1	4.843259877648961E+001	-3.8378063E-001	-3.8381821E-001	-3.905371476491178E-003	1.4989527E-006
2	0	0	0	4.893319876384339E+001	-3.8878661E-001	-3.8881639E-001	-4.015631089125244E-003	1.5613432E-006
2	0	0	1	4.943379875119717E+001	-3.9379266E-001	-3.9383361E-001	-4.117553459971071E-003	1.6216310E-006
2	0	0	0	4.993439873855095E+001	-3.9879864E-001	-3.9883277E-001	-4.232774787486723E-003	1.6881693E-006
2	0	0	1	5.043499872590473E+001	-4.0380463E-001	-4.0383080E-001	-4.346905064164075E-003	1.7554141E-006
2	0	0	1	5.093579871325346E+001	-4.0881258E-001	-4.0883574E-001	-4.476334163188336E-003	1.8300854E-006
2	0	0	0	5.143639870060724E+001	-4.1381860E-001	-4.1383371E-001	-4.601235542096876E-003	1.9041464E-006
2	0	0	1	5.193699868796102E+001	-4.1882458E-001	-4.1885731E-001	-4.733776085328906E-003	1.9827767E-006
2	0	0	0	5.243759867531480E+001	-4.2383060E-001	-4.2386553E-001	-4.872251362347542E-003	2.0651794E-006
2	0	0	1	5.293819866266858E+001	-4.2883664E-001	-4.2885071E-001	-5.004333035071543E-003	2.1461117E-006
2	0	0	0	5.343879865002236E+001	-4.3384260E-001	-4.3387160E-001	-5.149352220137862E-003	2.2341576E-006
2	0	0	1	5.393939863737614E+001	-4.3884858E-001	-4.3888903E-001	-5.276610321523781E-003	2.3158464E-006
2	0	0	0	5.443999862472992E+001	-4.4385463E-001	-4.4386849E-001	-5.430676265217177E-003	2.4105061E-006
2	0	0	1	5.494059861208370E+001	-4.4886065E-001	-4.4888079E-001	-5.567905242167520E-003	2.4993258E-006
2	0	0	1	5.544139859943243E+001	-4.5386860E-001	-4.5390078E-001	-5.719235585271848E-003	2.5959655E-006
2	0	0	0	5.594199858678621E+001	-4.5887461E-001	-4.5891047E-001	-5.871451578661299E-003	2.6944706E-006
2	0	0	1	5.644259857413999E+001	-4.6388066E-001	-4.6391258E-001	-6.033986068554112E-003	2.7992421E-006
2	0	0	0	5.694319856149377E+001	-4.6888673E-001	-4.6890724E-001	-6.215064913161775E-003	2.9142889E-006
2	0	0	1	5.744379854884755E+001	-4.7389278E-001	-4.7393122E-001	-6.385629701739629E-003	3.0263493E-006
2	0	0	0	5.794439853620133E+001	-4.7889873E-001	-4.7894087E-001	-6.557524227412282E-003	3.1406664E-006
2	0	0	1	5.844499852355511E+001	-4.8390469E-001	-4.8394808E-001	-6.725677999648461E-003	3.2548789E-006
2	0	0	0	5.894559851090889E+001	-4.8891073E-001	-4.8897263E-001	-6.887727159797213E-003	3.3679100E-006
2	0	0	1	5.944629849826015E+001	-4.9391770E-001	-4.9397987E-001	-7.085785072653381E-003	3.5002352E-006
2	0	0	1	5.994699848561140E+001	-4.9892470E-001	-4.9897334E-001	-7.270573947681713E-003	3.6278225E-006
2	0	0	0	6.044759847296518E+001	-5.0393069E-001	-5.0398302E-001	-7.465843402693087E-003	3.7626583E-006
2	0	0	1	6.094819846031896E+001	-5.0893670E-001	-5.0896919E-001	-7.674642784628875E-003	3.9061565E-006
2	0	0	0	6.144879844767274E+001	-5.1394272E-001	-5.1400727E-001	-7.886305934876992E-003	4.0536188E-006
2	0	0	1	6.194939843502652E+001	-5.1894873E-001	-5.1900750E-001	-8.091683324568416E-003	4.1996445E-006
2	0	0	0	6.244999842238030E+001	-5.2395475E-001	-5.2401322E-001	-8.298911288197944E-003	4.3487394E-006
2	0	0	1	6.295059840973408E+001	-5.2896076E-001	-5.2900964E-001	-8.523269719355506E-003	4.5088918E-006
2	0	0	0	6.345119839708786E+001	-5.3396678E-001	-5.3401715E-001	-8.729090736993197E-003	4.6614841E-006
2	0	0	1	6.395189838443912E+001	-5.3897381E-001	-5.3902119E-001	-8.962095586521349E-003	4.8307593E-006
2	0	0	1	6.445259837179037E+001	-5.4398078E-001	-5.4403102E-001	-9.204350522694568E-003	5.0074523E-006
2	0	0	0	6.495319835914415E+001	-5.4898679E-001	-5.4904419E-001	-9.455247061267560E-003	5.1913485E-006
2	0	0	1	6.545379834649793E+001	-5.5399293E-001	-5.5407637E-001	-9.704326182231313E-003	5.3769377E-006
2	0	0	0	6.595439833385171E+001	-5.5899894E-001	-5.5906779E-001	-9.989706889188169E-003	5.5849232E-006
2	0	0	1	6.647249832076341E+001	-5.6418008E-001	-5.6422538E-001	-1.029235661598135E-002	5.8072087E-006
2	0	0	1	6.699059830767510E+001	-5.6936103E-001	-5.6942201E-001	-1.057864593019436E-002	6.0237139E-006
2	0	0	0	6.749129829502635E+001	-5.7436800E-001	-5.7442552E-001	-1.084639465801976E-002	6.2304457E-006
2	0	0	0	6.799199828237761E+001	-5.7937503E-001	-5.7942581E-001	-1.112479956695583E-002	6.4459960E-006
2	0	0	1	6.849259826973139E+001	-5.8438087E-001	-5.8442557E-001	-1.142981882623528E-002	6.6798784E-006
2	0	0	0	6.899319825708517E+001	-5.8938700E-001	-5.8943582E-001	-1.172052743021429E-002	6.9084986E-006
2	0	0	1	6.949379824443895E+001	-5.9439296E-001	-5.9446543E-001	-1.203098563575308E-002	7.1520053E-006
2	0	0	0	6.999439823179273E+001	-5.9939903E-001	-5.9946144E-001	-1.231826499294805E-002	7.3843248E-006
2	0	0	1	7.049499821914651E+001	-6.0440493E-001	-6.0446787E-001	-1.265919157679044E-002	7.6520746E-006
2	0	0	0	7.099559820650029E+001	-6.0941100E-001	-6.0947812E-001	-1.301070726246578E-002	7.9297415E-006
2	0	0	1	7.149619819385407E+001	-6.1441702E-001	-6.1448979E-001	-1.333608908827300E-002	8.1948911E-006
2	0	0	1	7.199699818120280E+001	-6.1942512E-001	-6.1948407E-001	-1.369876023457693E-002	8.4861640E-006
2	0	0	0	7.249759816855658E+001	-6.2443095E-001	-6.2449378E-001	-1.406108938042420E-002	8.7810631E-006
2	0	0	1	7.299819815591036E+001	-6.2943709E-001	-6.2951374E-001	-1.442364506970370E-002	9.0798831E-006
2	0	0	0	7.349879814326414E+001	-6.3444304E-001	-6.3450539E-001	-1.480551904634252E-002	9.3941817E-006
2	0	0	1	7.399939813061792E+001	-6.3944918E-001	-6.3949364E-001	-1.518757323057066E-002	9.7123566E-006
2	0	0	0	7.449999811797170E+001	-6.4445508E-001	-6.4450282E-001	-1.561163849676898E-002	1.0061745E-005
2	0	0	1	7.500059810532548E+001	-6.4946115E-001	-6.4950687E-001	-1.603014229466862E-002	1.0411687E-005
2	0	0	0	7.550119809267926E+001	-6.5446728E-001	-6.5449256E-001	-1.645689560894648E-002	1.0770916E-005
2	0	0	1	7.600189808003051E+001	-6.5947419E-001	-6.5950489E-001	-1.690396159847718E-002	1.1148245E-005
2	0	0	1	7.650259806738177E+001	-6.6448122E-001	-6.6450703E-001	-1.736977663837122E-002	1.1542339E-005
2	0	0	0	7.700319805473555E+001	-6.6948718E-001	-6.6952688E-001	-1.781006943089683E-002	1.1924320E-005
2	0	0	1	7.750379804208933E+001	-6.7449325E-001	-6.7453355E-001	-1.824825572811067E-002	1.2309060E-005
2	0	0	0	7.800439802944311E+001	-6.7949903E-001	-6.7952704E-001	-1.874810886906403E-002	1.2739847E-005
2	0	0	1	7.850499801679689E+001	-6.8450522E-001	-6.8453860E-001	-1.924961519073842E-002	1.3177105E-005
2	0	0	0	7.900559800415067E+001	-6.8951112E-001	-6.8953389E-001	-1.975092110101118E-002	1.3618929E-005
2	0	0	1	7.950619799150445E+001	-6.9451737E-001	-6.9454831E-001	-2.022118501661367E-002	1.4044590E-005
2	0	0	0	8.000679797885823E+001	-6.9952315E-001	-6.9955546E-001	-2.073352547325513E-002	1.4504250E-005
2	0	0	1	8.050749796620948E+001	-7.0453030E-001	-7.0456696E-001	-2.127439003102136E-002	1.4989232E-005
2	0	0	1	8.100819795356074E+001	-7.0953721E-001	-7.0956922E-001	-2.184081205234040E-002	1.5497568E-005
2	0	0	0	8.150879794091452E+001	-7.1454322E-001	-7.1458298E-001	-2.239243659293516E-002	1.6001253E-005
2	0	0	1	8.200939792826830E+001	-7.1954912E-001	-7.1956533E-001	-2.294509009026169E-002	1.6510492E-005
2	0	0	0	8.250999791562208E+001	-7.2455543E-001	-7.2458118E-001	-2.356675129953412E-002	1.7076025E-005
2	0	0	1	8.301059790297586E+001	-7.2956133E-001	-7.2957110E-001	-2.416406462944548E-002	1.7629403E-005
2	0	0	0	8.351119789032964E+001	-7.3456734E-001	-7.3458350E-001	-2.475471280014718E-002	1.8184404E-005
2	0	0	1	8.401179787768342E+001	-7.3957354E-001	-7.3957413E-001	-2.540842274156843E-002	1.8791412E-005
2	0	0	0	8.451239786503720E+001	-7.4457937E-001	-7.4460447E-001	-2.603208438038099E-002	1.9383606E-005
2	0	0	1	8.501309785238846E+001	-7.4958646E-001	-7.4959880E-001	-2.669629642515176E-002	2.0011512E-005
2	0	0	1	8.551379783973971E+001	-7.5459319E-001	-7.5460905E-001	-2.735037257006878E-002	2.0638839E-005
2	0	0	0	8.601439782709349E+001	-7.5959939E-001	-7.5962710E-001	-2.803788792298956E-002	2.1298340E-005
2	0	0	1	8.651499781444727E+001	-7.6460522E-001	-7.6465052E-001	-2.872055361413167E-002	2.1961187E-005
2	0	0	0	8.701559780180105E+001	-7.6961142E-001	-7.6964217E-001	-2.942080102402445E-002	2.2643490E-005
2	0	0	1	8.751619778915483E+001	-7.7461720E-001	-7.7464902E-001	-3.017031224524658E-002	2.3371404E-005
2	0	0	0	8.801679777650861E+001	-7.7962351E-001	-7.7965385E-001	-3.089661139911662E-002	2.4088662E-005
2	0	0	1	8.851739776386239E+001	-7.8462929E-001	-7.8466547E-001	-3.167231361967238E-002	2.4852170E-005
2	0	0	0	8.901809775121365E+001	-7.8963643E-001	-7.8967524E-001	-3.245906355511541E-002	2.5632118E-005
2	0	0	0	8.951879773856490E+001	-7.9464322E-001	-7.9469705E-001	-3.323456987698778E-002	2.6411415E-005
2	0	0	1	9.001939772591868E+001	-7.9964954E-001	-7.9968804E-001	-3.406158743684257E-002	2.7238644E-005
2	0	0	0	9.051999771327246E+001	-8.0465543E-001	-8.0470073E-001	-3.481282419425469E-002	2.8013905E-005
2	0	0	1	9.102059770062624E+001	-8.0966145E-001	-8.0971128E-001	-3.561044587199891E-002	2.8834180E-005
2	0	0	0	9.152119768798002E+001	-8.1466752E-001	-8.1471556E-001	-3.643294994127000E-002	2.9682491E-005
2	0	0	1	9.202179767533380E+001	-8.1967342E-001	-8.1973249E-001	-3.731878429053279E-002	3.0591418E-005
2	0	0	0	9.252239766268758E+001	-8.2467967E-001	-8.2473385E-001	-3.814451921848439E-002	3.1459076E-005
2	0	0	1	9.302299765004136E+001	-8.2968551E-001	-8.2974911E-001	-3.906658625826998E-002	3.2415464E-005
2	0	0	0	9.352369763739262E+001	-8.3469260E-001	-8.3476603E-001	-3.993149585719868E-002	3.3333457E-005
2	0	0	0	9.402439762474387E+001	-8.3969939E-001	-8.3973509E-001	-4.090320966080296E-002	3.4347860E-005
2	0	0	1	9.452499761209765E+001	-8.4470552E-001	-8.4474778E-001	-4.189545645170711E-002	3.5391095E-005
2	0	0	0	9.502559759945143E+001	-8.4971130E-001	-8.4975517E-001	-4.285615283185179E-002	3.6417237E-005
2	0	0	1	9.552619758680521E+001	-8.5471755E-001	-8.5476804E-001	-4.372144933875038E-002	3.7371698E-005
2	0	0	0	9.602679757415899E+001	-8.5972327E-001	-8.5976958E-001	-4.473506044249220E-002	3.8461843E-005
2	0	0	1	9.652739756151277E+001	-8.6472964E-001	-8.6478019E-001	-4.571463921671335E-002	3.9533115E-005
2	0	0	0	9.702799754886655E+001	-8.6973542E-001	-8.6979491E-001	-4.671347785003366E-002	4.0631145E-005
2	0	0	1	9.752859753622033E+001	-8.7474167E-001	-8.7479156E-001	-4.772518006566318E-002	4.1749583E-005
2	0	0	0	9.802929752357159E+001	-8.7974846E-001	-8.7977093E-001	-4.879566849160322E-002	4.2929012E-005
2	0	0	0	9.852999751092284E+001	-8.8475567E-001	-8.8479954E-001	-4.989606968763144E-002	4.4148019E-005
2	0	0	1	9.903059749827662E+001	-8.8976151E-001	-8.8979191E-001	-5.095651801089224E-002	4.5340697E-005
2	0	0	0	9.953119748563040E+001	-8.9476758E-001	-8.9479512E-001	-5.199366042350519E-002	4.6523674E-005
2	0	0	1	1.000317974729842E+002	-8.9977372E-001	-8.9980417E-001	-5.304845143443271E-002	4.7733218E-005
2	0	0	0	1.005323974603380E+002	-9.0477955E-001	-9.0481377E-001	-5.421432874317557E-002	4.9053870E-005
2	0	0	1	1.010329974476917E+002	-9.0978575E-001	-9.0982431E-001	-5.534769775748971E-002	5.0356681E-005
2	0	0	0	1.015335974350455E+002	-9.1479152E-001	-9.1480637E-001	-5.650133108016486E-002	5.1687777E-005
2	0	0	1	1.020341974223993E+002	-9.1979778E-001	-9.1981739E-001	-5.765834904766382E-002	5.3035154E-005
2	0	0	1	1.025349974097480E+002	-9.2480540E-001	-9.2485136E-001	-5.882509236038691E-002	5.4404467E-005
2	0	0	0	1.030355973971018E+002	-9.2981166E-001	-9.2986810E-001	-6.004161558003729E-002	5.5830784E-005
2	0	0	1	1.035361973844556E+002	-9.3481749E-001	-9.3486017E-001	-6.128041932197559E-002	5.7288624E-005
2	0	0	0	1.040367973718094E+002	-9.3982369E-001	-9.3986285E-001	-6.245838250396329E-002	5.8702313E-005
2	0	0	1	1.045373973591632E+002	-9.4482940E-001	-9.4487095E-001	-6.368847470591699E-002	6.0177390E-005
2	0	0	0	1.050379973465169E+002	-9.4983578E-001	-9.4987208E-001	-6.496783897049507E-002	6.1711136E-005
2	0	0	1	1.055385973338707E+002	-9.5484149E-001	-9.5485449E-001	-6.625803714146616E-002	6.3266787E-005
2	0	0	0	1.060391973212245E+002	-9.5984781E-001	-9.5984626E-001	-6.753905748111133E-002	6.4827109E-005
2	0	0	1	1.065398973085757E+002	-9.6485448E-001	-9.6489286E-001	-6.883437347838617E-002	6.6417793E-005
2	0	0	1	1.070405972959270E+002	-9.6986169E-001	-9.6989942E-001	-7.011447700408724E-002	6.8003988E-005
2	0	0	0	1.075411972832808E+002	-9.7486764E-001	-9.7489733E-001	-7.146641159229672E-002	6.9672416E-005
2	0	0	1	1.080417972706346E+002	-9.7987360E-001	-9.7990656E-001	-7.277644657164184E-002	7.1314120E-005
2	0	0	0	1.085423972579883E+002	-9.8487973E-001	-9.8490745E-001	-7.409594285004312E-002	7.2977644E-005
2	0	0	1	1.090429972453421E+002	-9.8988557E-001	-9.8991722E-001	-7.545477979687448E-002	7.4693984E-005
2	0	0	0	1.095435972326959E+002	-9.9489188E-001	-9.9490029E-001	-7.683326649927857E-002	7.6441436E-005
2	0	0	1	1.099240972230837E+002	-9.9869567E-001	-9.9872917E-001	-7.789155247722379E-002	7.7792567E-005
2	0	0	0	1.100521972198476E+002	-1.0000215E+000	-9.9999970E-001	-7.832938805222511E-002	7.8329365E-005