EC-Lab ASCII FILE
Nb header lines : 55                          

I-V Characterization

Run on channel : 1 (SN 6514)
User : 
CE vs. WE compliance from -10 V to 10 V
Electrode connection : standard
Ewe ctrl range : min = -1.10 V, max = 0.20 V
Safety Limits :
	Do not start on E overload
Acquisition started on : 06/15/2016 17:59:12
Saved on :
	File : B125-G54-UN-G-D1GB-C6 BW 100mVs_02_IVC_C01.mpr
	Directory : E:\EC-Lab measurements\B125-G54-UN-G-D1GB\
	Host : 10.0.2.15
Device : VSP (SN 0295)
Address : USB
EC-Lab for windows v11.01 (software)
Internet server v11.00 (firmware)
Command interpretor v11.00 (firmware)
Electrode material : 
Initial state : 
Electrolyte : 
Comments : 
Electrode surface area : 0.001 cm²
Characteristic mass : 0.001 g
Equivalent Weight : 0.000 g/eq.
Density : 0.000 g/cm3
tR (h:m:s)          0:00:0.0000         
dER/dt (mV/h)       0.0                 
dER (mV)            0                   
dtR (s)             0.0000              
dE/dt               100.000             
dE/dt unit          mV/s                
Ei (V)              -1.000              
vs.                 Ref                 
EL (V)              0.100               
vs.                 Ref                 
record              <I>                 
dI                  0.000               
unit dI             µA                  
tI (s)              0.1000              
step percent        100                 
N                   100                 
E range min (V)     -1.100              
E range max (V)     0.200               
I Range             Auto                
I Range min         Unset               
I Range max         Unset               
I Range init        Unset               
Bandwidth           5                   

mode	ox/red	error	control changes	time/s	control/V	Ewe/V	<I>/mA	P/W
2	1	0	1	1.108159972005524E+001	-9.9701840E-001	-9.9700207E-001	-1.223043262958527E+000	1.2193767E-003
2	1	0	0	1.110699971941358E+001	-9.9448264E-001	-9.9456275E-001	-1.221035846989391E+000	1.2143968E-003
2	1	0	0	1.115699971815047E+001	-9.8948628E-001	-9.8958749E-001	-1.221992721969192E+000	1.2092687E-003
2	1	0	0	1.120699971688737E+001	-9.8448443E-001	-9.8460603E-001	-1.220981582923782E+000	1.2021859E-003
2	1	0	1	1.125709971562173E+001	-9.7947377E-001	-9.7958291E-001	-1.218695416776304E+000	1.1938132E-003
2	1	0	1	1.130719971435610E+001	-9.7446603E-001	-9.7457588E-001	-1.216066488930723E+000	1.1851491E-003
2	1	0	1	1.135719971309300E+001	-9.6946371E-001	-9.6956563E-001	-1.214767931709823E+000	1.1777972E-003
2	1	0	0	1.140729971182736E+001	-9.6445441E-001	-9.6455675E-001	-1.210469595057924E+000	1.1675666E-003
2	1	0	0	1.145739971056173E+001	-9.5944506E-001	-9.5951581E-001	-1.204751713218593E+000	1.1559783E-003
2	1	0	0	1.150739970929862E+001	-9.5444268E-001	-9.5452344E-001	-1.196707961389832E+000	1.1422858E-003
2	1	0	1	1.155749970803299E+001	-9.4943577E-001	-9.4954520E-001	-1.185500705962816E+000	1.1256865E-003
2	1	0	1	1.160759970676736E+001	-9.4442445E-001	-9.4454384E-001	-1.171092118866028E+000	1.1061479E-003
2	1	0	1	1.165759970550425E+001	-9.3942332E-001	-9.3951720E-001	-1.153159845738672E+000	1.0834135E-003
2	1	0	1	1.170759970424115E+001	-9.3442619E-001	-9.3453532E-001	-1.131967900561829E+000	1.0578639E-003
2	1	0	0	1.175779970297299E+001	-9.2940390E-001	-9.2952240E-001	-1.106915969079870E+000	1.0289032E-003
2	1	0	0	1.180779970170988E+001	-9.2440403E-001	-9.2450792E-001	-1.076487631558905E+000	9.9522131E-004
2	1	0	0	1.185779970044678E+001	-9.1940534E-001	-9.1949850E-001	-1.043320636969392E+000	9.5933175E-004
2	1	0	1	1.190799969917862E+001	-9.1438311E-001	-9.1449851E-001	-1.009016388648556E+000	9.2274399E-004
2	1	0	1	1.195799969791551E+001	-9.0938532E-001	-9.0948588E-001	-9.725526389656274E-001	8.8452292E-004
2	1	0	1	1.200799969665241E+001	-9.0438473E-001	-9.0448552E-001	-9.353037683614716E-001	8.4596872E-004
2	1	0	0	1.205809969538677E+001	-8.9937288E-001	-8.9946336E-001	-8.972784549154174E-001	8.0706907E-004
2	1	0	0	1.210819969412114E+001	-8.9436626E-001	-8.9445263E-001	-8.587242477030017E-001	7.6808815E-004
2	1	0	0	1.215819969285803E+001	-8.8936400E-001	-8.8945359E-001	-8.204049179176991E-001	7.2971208E-004
2	1	0	1	1.220829969159240E+001	-8.8435370E-001	-8.8444382E-001	-7.815132088655612E-001	6.9120451E-004
2	1	0	1	1.225839969032677E+001	-8.7934530E-001	-8.7943327E-001	-7.439317349165897E-001	6.5423833E-004
2	1	0	1	1.230839968906366E+001	-8.7434310E-001	-8.7444603E-001	-7.063576499252271E-001	6.1767164E-004
2	1	0	0	1.235849968779803E+001	-8.6933494E-001	-8.6944830E-001	-6.701402743491407E-001	5.8265234E-004
2	1	0	0	1.240859968653240E+001	-8.6432493E-001	-8.6441976E-001	-6.349004700120080E-001	5.4882054E-004
2	1	0	0	1.245859968526929E+001	-8.5932285E-001	-8.5942894E-001	-6.019658551287463E-001	5.1734690E-004
2	1	0	1	1.250869968400366E+001	-8.5431576E-001	-8.5442775E-001	-5.704121687125818E-001	4.8737598E-004
2	1	0	1	1.255879968273803E+001	-8.4930408E-001	-8.4940898E-001	-5.392266434311486E-001	4.5802395E-004
2	1	0	1	1.260879968147492E+001	-8.4430325E-001	-8.4441942E-001	-5.103775711521310E-001	4.3097272E-004
2	1	0	1	1.265879968021181E+001	-8.3930564E-001	-8.3939433E-001	-4.826075007823807E-001	4.0509799E-004
2	1	0	0	1.273939967817569E+001	-8.3124602E-001	-8.3130956E-001	-4.395695959415882E-001	3.6541841E-004
2	1	0	1	1.278959967690753E+001	-8.2622349E-001	-8.2629013E-001	-4.143502314315812E-001	3.4237350E-004
2	1	0	1	1.283959967564442E+001	-8.2122439E-001	-8.2127380E-001	-3.896722139667617E-001	3.2002758E-004
2	1	0	1	1.288959967438132E+001	-8.1622499E-001	-8.1627434E-001	-3.658285266966921E-001	2.9861645E-004
2	1	0	0	1.293979967311316E+001	-8.1120270E-001	-8.1126314E-001	-3.427710678356029E-001	2.7807752E-004
2	1	0	0	1.298979967185005E+001	-8.0620515E-001	-8.0625373E-001	-3.210083428513304E-001	2.5881417E-004
2	1	0	0	1.303979967058694E+001	-8.0120426E-001	-8.0123329E-001	-2.997012684099456E-001	2.4013064E-004
2	1	0	1	1.308989966932131E+001	-7.9619229E-001	-7.9623818E-001	-2.792343123194252E-001	2.2233702E-004
2	1	0	1	1.313999966805568E+001	-7.9118609E-001	-7.9123008E-001	-2.594949826886794E-001	2.0532023E-004
2	1	0	1	1.318999966679257E+001	-7.8618336E-001	-7.8623211E-001	-2.403724400206237E-001	1.8898853E-004
2	1	0	0	1.324009966552694E+001	-7.8117394E-001	-7.8121662E-001	-2.216503081238201E-001	1.7315691E-004
2	1	0	0	1.329019966426131E+001	-7.7616537E-001	-7.7621806E-001	-2.034218088620880E-001	1.5789967E-004
2	1	0	0	1.334019966299820E+001	-7.7116293E-001	-7.7122086E-001	-1.854861699553523E-001	1.4305080E-004
2	1	0	1	1.339029966173257E+001	-7.6615459E-001	-7.6621234E-001	-1.679313871538173E-001	1.2867110E-004
2	1	0	1	1.344039966046694E+001	-7.6114446E-001	-7.6119703E-001	-1.507997185347643E-001	1.1478830E-004
2	1	0	1	1.349039965920383E+001	-7.5614196E-001	-7.5618732E-001	-1.336703609723411E-001	1.0107983E-004
2	1	0	0	1.354049965793820E+001	-7.5113600E-001	-7.5117099E-001	-1.173277309118590E-001	8.8133187E-005
2	1	0	0	1.359059965667257E+001	-7.4612367E-001	-7.4615568E-001	-1.012175039195209E-001	7.5524018E-005
2	1	0	0	1.364059965540946E+001	-7.4112344E-001	-7.4114519E-001	-8.529973898139320E-002	6.3219493E-005
2	1	0	0	1.369059965414635E+001	-7.3612541E-001	-7.3615807E-001	-6.971211932078081E-002	5.1319141E-005
2	1	0	1	1.374079965287820E+001	-7.3110294E-001	-7.3111659E-001	-5.440538220138524E-002	3.9776678E-005
2	1	0	1	1.379079965161509E+001	-7.2610414E-001	-7.2612816E-001	-3.930885278376917E-002	2.8543265E-005
2	1	0	1	1.385579964997305E+001	-7.1960247E-001	-7.1964282E-001	-1.961772105422863E-002	1.4117752E-005
2	1	0	0	1.392099964832596E+001	-7.1308464E-001	-7.1313375E-001	-3.158590638109304E-004	2.2524976E-007
2	1	0	0	1.397099964706285E+001	-7.0808250E-001	-7.0809507E-001	1.441541915502798E-002	1.0207487E-005
2	1	0	1	1.402109964579722E+001	-7.0307541E-001	-7.0308876E-001	2.890113743908892E-002	2.0320065E-005
2	1	0	1	1.407119964453159E+001	-6.9806403E-001	-6.9807667E-001	4.329304573605897E-002	3.0221865E-005
2	1	0	1	1.412119964326848E+001	-6.9306254E-001	-6.9307715E-001	5.737000973456341E-002	3.9761842E-005
2	1	0	1	1.417119964200538E+001	-6.8806529E-001	-6.8806463E-001	7.155672308674310E-002	4.9235652E-005
2	1	0	0	1.422139964073722E+001	-6.8304324E-001	-6.8304831E-001	8.563311075501123E-002	5.8491551E-005
2	1	0	0	1.428639963909518E+001	-6.7654300E-001	-6.7655712E-001	1.040368992322445E-001	7.0386908E-005
2	1	0	1	1.435149963745062E+001	-6.7003369E-001	-6.7006767E-001	1.215607918097148E-001	8.1453960E-005
2	1	0	1	1.440159963618498E+001	-6.6502476E-001	-6.6504514E-001	1.353023512065525E-001	8.9982168E-005
2	1	0	1	1.445159963492188E+001	-6.6002268E-001	-6.6005838E-001	1.489946247597688E-001	9.8345154E-005
2	1	0	0	1.450169963365624E+001	-6.5501463E-001	-6.5504003E-001	1.622220748038987E-001	1.0626195E-004
2	1	0	0	1.455179963239061E+001	-6.5000373E-001	-6.5003842E-001	1.755182368232413E-001	1.1409360E-004
2	1	0	0	1.460179963112751E+001	-6.4500195E-001	-6.4503849E-001	1.889203270368132E-001	1.2186088E-004
2	1	0	0	1.465179962986440E+001	-6.4000529E-001	-6.4005142E-001	2.021180461183558E-001	1.2936594E-004
2	1	0	1	1.470199962859624E+001	-6.3498336E-001	-6.3503361E-001	2.149924412907245E-001	1.3652742E-004
2	1	0	1	1.475199962733313E+001	-6.2998313E-001	-6.3005382E-001	2.281208654082685E-001	1.4372842E-004
2	1	0	1	1.480199962607003E+001	-6.2498498E-001	-6.2505168E-001	2.411155670974241E-001	1.5070969E-004
2	1	0	0	1.485219962480187E+001	-6.1996287E-001	-6.2002015E-001	2.535041534079534E-001	1.5717768E-004
2	1	0	0	1.490219962353876E+001	-6.1496407E-001	-6.1504060E-001	2.659953270584472E-001	1.6359793E-004
2	1	0	0	1.495219962227566E+001	-6.0996395E-001	-6.1003304E-001	2.787753006590341E-001	1.7006214E-004
2	1	0	1	1.500239962100750E+001	-6.0494196E-001	-6.0500497E-001	2.917039073593450E-001	1.7648231E-004
2	1	0	1	1.505239961974439E+001	-5.9994495E-001	-5.9999537E-001	3.045710269099691E-001	1.8274121E-004
2	1	0	1	1.510239961848129E+001	-5.9494358E-001	-5.9500933E-001	3.167192925758854E-001	1.8845094E-004
2	1	0	0	1.515249961721565E+001	-5.8993262E-001	-5.8999866E-001	3.293627067124998E-001	1.9432355E-004
2	1	0	0	1.520259961595002E+001	-5.8492506E-001	-5.8497661E-001	3.415236602575256E-001	1.9978336E-004
2	1	0	0	1.525259961468691E+001	-5.7992291E-001	-5.7997781E-001	3.538877053397002E-001	2.0524702E-004
2	1	0	1	1.530269961342128E+001	-5.7491368E-001	-5.7497436E-001	3.660963895255049E-001	2.1049603E-004
2	1	0	1	1.535279961215565E+001	-5.6990403E-001	-5.6996906E-001	3.782473888879805E-001	2.1558930E-004
2	1	0	1	1.540279961089254E+001	-5.6490231E-001	-5.6496936E-001	3.898521887807695E-001	2.2025454E-004
2	1	0	0	1.545289960962691E+001	-5.5989450E-001	-5.5996531E-001	4.015938228683762E-001	2.2487860E-004
2	1	0	0	1.550299960836128E+001	-5.5488390E-001	-5.5495638E-001	4.128000545683195E-001	2.2908603E-004
2	1	0	0	1.555299960709817E+001	-5.4988217E-001	-5.4992801E-001	4.238053922402569E-001	2.3306246E-004
2	1	0	0	1.560299960583507E+001	-5.4488540E-001	-5.4494005E-001	4.350503221440958E-001	2.3707634E-004
2	1	0	1	1.565319960456691E+001	-5.3986317E-001	-5.3990346E-001	4.465052969595771E-001	2.4106975E-004
2	1	0	1	1.570319960330380E+001	-5.3486317E-001	-5.3492123E-001	4.581538129787953E-001	2.4507620E-004
2	1	0	1	1.575319960204070E+001	-5.2986425E-001	-5.2991998E-001	4.690480954743013E-001	2.4855795E-004
2	1	0	0	1.580339960077254E+001	-5.2484244E-001	-5.2490348E-001	4.796877588065440E-001	2.5178978E-004
2	1	0	0	1.585339959950943E+001	-5.1984406E-001	-5.1989985E-001	4.911887482746327E-001	2.5536894E-004
2	1	0	0	1.590339959824632E+001	-5.1484394E-001	-5.1491135E-001	5.018960759558624E-001	2.5843197E-004
2	1	0	1	1.595349959698069E+001	-5.0983173E-001	-5.0987655E-001	5.129327308411780E-001	2.6153238E-004
2	1	0	1	1.600359959571506E+001	-5.0482547E-001	-5.0487810E-001	5.229855260233842E-001	2.6404395E-004
2	1	0	1	1.605359959445195E+001	-4.9982321E-001	-4.9987906E-001	5.340807398911820E-001	2.6697578E-004
2	1	0	0	1.610369959318632E+001	-4.9481276E-001	-4.9487662E-001	5.438513705736736E-001	2.6913933E-004
2	1	0	0	1.615379959192069E+001	-4.8980439E-001	-4.8986498E-001	5.538954654602550E-001	2.7133399E-004
2	1	0	0	1.620379959065758E+001	-4.8480248E-001	-4.8485029E-001	5.650905789845044E-001	2.7398433E-004
2	1	0	1	1.625389958939195E+001	-4.7979364E-001	-4.7982901E-001	5.752019456301287E-001	2.7599858E-004
2	1	0	1	1.630399958812632E+001	-4.7478408E-001	-4.7482166E-001	5.855810600290723E-001	2.7804656E-004
2	1	0	1	1.635399958686321E+001	-4.6978185E-001	-4.6982282E-001	5.958953590325784E-001	2.7996523E-004
2	1	0	0	1.640409958559758E+001	-4.6477503E-001	-4.6480536E-001	6.046767837989249E-001	2.8105700E-004
2	1	0	0	1.645419958433195E+001	-4.5976347E-001	-4.5979151E-001	6.142523931459927E-001	2.8242802E-004
2	1	0	0	1.650419958306884E+001	-4.5476234E-001	-4.5480293E-001	6.232099541167619E-001	2.8343772E-004
2	1	0	0	1.655419958180573E+001	-4.4976467E-001	-4.4978777E-001	6.322324130917627E-001	2.8437041E-004
2	1	0	1	1.660439958053757E+001	-4.4474277E-001	-4.4476667E-001	6.402726258628331E-001	2.8477193E-004
2	1	0	1	1.665439957927447E+001	-4.3974316E-001	-4.3978408E-001	6.496187323893547E-001	2.8569199E-004
2	1	0	1	1.670439957801136E+001	-4.3474439E-001	-4.3477148E-001	6.582739016933701E-001	2.8619872E-004
2	1	0	0	1.675459957674320E+001	-4.2972189E-001	-4.2974952E-001	6.665869639399133E-001	2.8646542E-004
2	1	0	0	1.680459957548010E+001	-4.2472455E-001	-4.2475414E-001	6.749636242958026E-001	2.8669360E-004
2	1	0	0	1.685459957421699E+001	-4.1972342E-001	-4.1976497E-001	6.829902069606950E-001	2.8669537E-004
2	1	0	1	1.690469957295136E+001	-4.1471183E-001	-4.1475394E-001	6.914630797525199E-001	2.8678705E-004
2	1	0	1	1.695479957168573E+001	-4.0970469E-001	-4.0973917E-001	6.994746621023555E-001	2.8660215E-004
2	1	0	1	1.700479957042262E+001	-4.0470275E-001	-4.0474728E-001	7.073453369732547E-001	2.8629610E-004
2	1	0	0	1.705489956915699E+001	-3.9969268E-001	-3.9974317E-001	7.156716654449333E-001	2.8608486E-004
2	1	0	0	1.710499956789135E+001	-3.9468461E-001	-3.9472455E-001	7.222892704140755E-001	2.8510531E-004
2	1	0	0	1.715499956662825E+001	-3.8968214E-001	-3.8972425E-001	7.304202504312265E-001	2.8466250E-004
2	1	0	1	1.720509956536262E+001	-3.8467407E-001	-3.8471118E-001	7.381864840252388E-001	2.8398860E-004
2	1	0	1	1.725519956409698E+001	-3.7966368E-001	-3.7970084E-001	7.455226110641417E-001	2.8307555E-004
2	1	0	1	1.730519956283388E+001	-3.7466130E-001	-3.7470263E-001	7.528710563974617E-001	2.8210276E-004
2	1	0	0	1.735529956156824E+001	-3.6965483E-001	-3.6969694E-001	7.601824706393963E-001	2.8103712E-004
2	1	0	0	1.740539956030261E+001	-3.6464304E-001	-3.6469069E-001	7.675915155481601E-001	2.7993348E-004
2	1	0	0	1.745539955903951E+001	-3.5964221E-001	-3.5968104E-001	7.739447101513210E-001	2.7837325E-004
2	1	0	0	1.750539955777640E+001	-3.5464460E-001	-3.5468560E-001	7.808488844878347E-001	2.7695586E-004
2	1	0	1	1.755559955650824E+001	-3.4962213E-001	-3.4966165E-001	7.860262339962318E-001	2.7484322E-004
2	1	0	1	1.760559955524514E+001	-3.4462360E-001	-3.4464669E-001	7.929086458415000E-001	2.7327336E-004
2	1	0	1	1.765559955398203E+001	-3.3962366E-001	-3.3966094E-001	7.997308151135805E-001	2.7163731E-004
2	1	0	0	1.770579955271387E+001	-3.3460125E-001	-3.3463094E-001	8.062896962044324E-001	2.6980948E-004
2	1	0	0	1.775579955145076E+001	-3.2960433E-001	-3.2961631E-001	8.120571273101920E-001	2.6766726E-004
2	1	0	0	1.780579955018766E+001	-3.2460323E-001	-3.2464331E-001	8.178292572566104E-001	2.6550281E-004
2	1	0	1	1.785589954892203E+001	-3.1959170E-001	-3.1964818E-001	8.227403355572811E-001	2.6298745E-004
2	1	0	1	1.790599954765639E+001	-3.1458473E-001	-3.1463102E-001	8.291588120834810E-001	2.6087908E-004
2	1	0	1	1.795599954639329E+001	-3.0958229E-001	-3.0962983E-001	8.346070979136098E-001	2.5841926E-004
2	1	0	0	1.800609954512765E+001	-3.0457312E-001	-3.0461508E-001	8.402277910510163E-001	2.5594607E-004
2	1	0	0	1.805619954386202E+001	-2.9956391E-001	-2.9962158E-001	8.459149165685034E-001	2.5345437E-004
2	1	0	0	1.810619954259892E+001	-2.9456148E-001	-2.9460308E-001	8.513025487197403E-001	2.5079635E-004
2	1	0	1	1.815629954133328E+001	-2.8955391E-001	-2.8958678E-001	8.566759702075535E-001	2.4808204E-004
2	1	0	1	1.820639954006765E+001	-2.8454325E-001	-2.8458944E-001	8.610606429596537E-001	2.4504875E-004
2	1	0	1	1.825639953880454E+001	-2.7954131E-001	-2.7957705E-001	8.656753623765532E-001	2.4202296E-004
2	1	0	1	1.830639953754144E+001	-2.7454481E-001	-2.7458116E-001	8.706266144024690E-001	2.3905767E-004
2	1	0	0	1.835659953627328E+001	-2.6952237E-001	-2.6956171E-001	8.755215774378087E-001	2.3600709E-004
2	1	0	0	1.840659953501017E+001	-2.6452267E-001	-2.6456696E-001	8.799878600596962E-001	2.3281571E-004
2	1	0	0	1.845659953374707E+001	-2.5952399E-001	-2.5955546E-001	8.856187465150794E-001	2.2986718E-004
2	1	0	1	1.850679953247891E+001	-2.5450170E-001	-2.5453272E-001	8.898952089241465E-001	2.2650746E-004
2	1	0	1	1.855679953121580E+001	-2.4950349E-001	-2.4954163E-001	8.933797856875625E-001	2.2293544E-004
2	1	0	1	1.860679952995270E+001	-2.4450345E-001	-2.4456105E-001	8.973900945291007E-001	2.1946666E-004
2	1	0	0	1.865699952868454E+001	-2.3948100E-001	-2.3954700E-001	9.008367319691093E-001	2.1579274E-004
2	1	0	0	1.870699952742143E+001	-2.3448482E-001	-2.3454455E-001	9.048395469254089E-001	2.1222518E-004
2	1	0	0	1.875699952615832E+001	-2.2948261E-001	-2.2954050E-001	9.079496689117175E-001	2.0841122E-004
2	1	0	1	1.880709952489269E+001	-2.2447222E-001	-2.2452447E-001	9.102802221413984E-001	2.0438018E-004
2	1	0	1	1.885719952362706E+001	-2.1946427E-001	-2.1952739E-001	9.133842767767852E-001	2.0051286E-004
2	1	0	1	1.890719952236395E+001	-2.1446173E-001	-2.1452136E-001	9.170105785415785E-001	1.9671836E-004
2	1	0	0	1.895729952109832E+001	-2.0945311E-001	-2.0951702E-001	9.201862238012726E-001	1.9279467E-004
2	1	0	0	1.900739951983269E+001	-2.0444344E-001	-2.0451519E-001	9.236469143114228E-001	1.8889982E-004
2	1	0	0	1.905739951856958E+001	-1.9944111E-001	-1.9950853E-001	9.269140627005648E-001	1.8492727E-004
2	1	0	1	1.910749951730395E+001	-1.9443429E-001	-1.9448574E-001	9.273343679652996E-001	1.8035331E-004
2	1	0	1	1.915759951603832E+001	-1.8942259E-001	-1.8949008E-001	9.304639714715708E-001	1.7631370E-004
2	1	0	1	1.920759951477521E+001	-1.8442172E-001	-1.8447049E-001	9.342071696125878E-001	1.7233366E-004
2	1	0	1	1.925759951351210E+001	-1.7942432E-001	-1.7947522E-001	9.380345031689838E-001	1.6835394E-004
2	1	0	0	1.930779951224395E+001	-1.7440203E-001	-1.7445654E-001	9.409863314446230E-001	1.6416122E-004
2	1	0	0	1.935779951098084E+001	-1.6940269E-001	-1.6945213E-001	9.438441742696142E-001	1.5993640E-004
2	1	0	0	1.940779950971773E+001	-1.6440365E-001	-1.6445459E-001	9.456403438059677E-001	1.5551489E-004
2	1	0	1	1.945799950844957E+001	-1.5938134E-001	-1.5942560E-001	9.477582861787148E-001	1.5109693E-004
2	1	0	1	1.950799950718647E+001	-1.5438370E-001	-1.5441996E-001	9.495763969257354E-001	1.4663355E-004
2	1	0	1	1.955799950592336E+001	-1.4938274E-001	-1.4941652E-001	9.510171207770348E-001	1.4209768E-004
2	1	0	0	1.960809950465773E+001	-1.4437120E-001	-1.4441070E-001	9.535900833645883E-001	1.3770862E-004
2	1	0	0	1.965819950339210E+001	-1.3936456E-001	-1.3938905E-001	9.565080678921696E-001	1.3332676E-004
2	1	0	0	1.970819950212899E+001	-1.3436215E-001	-1.3438024E-001	9.576432379338264E-001	1.2868832E-004
2	1	0	1	1.975829950086336E+001	-1.2935226E-001	-1.2937476E-001	9.587567183217462E-001	1.2403892E-004
2	1	0	1	1.980839949959773E+001	-1.2434371E-001	-1.2437557E-001	9.608184437039782E-001	1.1950234E-004
2	1	0	1	1.985839949833462E+001	-1.1934142E-001	-1.1936198E-001	9.640055115482671E-001	1.1506561E-004
2	1	0	0	1.990849949706899E+001	-1.1433329E-001	-1.1435251E-001	9.652842339936103E-001	1.1038267E-004
2	1	0	0	1.995859949580336E+001	-1.0932285E-001	-1.0933450E-001	9.667139833412008E-001	1.0569519E-004
2	1	0	0	2.000859949454025E+001	-1.0432074E-001	-1.0434748E-001	9.684236370551673E-001	1.0105257E-004
2	1	0	1	2.005869949327462E+001	-9.9314474E-002	-9.9328570E-002	9.714969632793586E-001	9.6497402E-005
2	1	0	1	2.010879949200898E+001	-9.4302423E-002	-9.4315775E-002	9.734221350092636E-001	9.1809066E-005
2	1	0	1	2.015879949074588E+001	-8.9301772E-002	-8.9331612E-002	9.734661867416605E-001	8.6961307E-005
2	1	0	1	2.020879948948277E+001	-8.4303916E-002	-8.4349997E-002	9.736975089948103E-001	8.2131381E-005
2	1	0	0	2.025899948821461E+001	-7.9281673E-002	-7.9307117E-002	9.748228848010747E-001	7.7310389E-005
2	1	0	0	2.030899948695151E+001	-7.4282818E-002	-7.4302554E-002	9.766269349821937E-001	7.2565876E-005
2	1	0	0	2.035899948568840E+001	-6.9283150E-002	-6.9309838E-002	9.774174263578388E-001	6.7744644E-005
2	1	0	1	2.040919948442024E+001	-6.4260930E-002	-6.4293206E-002	9.783700495377570E-001	6.2902545E-005
2	1	0	1	2.045919948315714E+001	-5.9263956E-002	-5.9287146E-002	9.796799959139979E-001	5.8082431E-005
2	1	0	1	2.050919948189403E+001	-5.4262470E-002	-5.4289952E-002	9.809443176513213E-001	5.3255419E-005
2	1	0	0	2.055929948062840E+001	-4.9251273E-002	-4.9274351E-002	9.815294316705501E-001	4.8364225E-005
2	1	0	0	2.060939947936276E+001	-4.4243962E-002	-4.4274453E-002	9.833460218787824E-001	4.3537108E-005
2	1	0	0	2.065939947809966E+001	-3.9241705E-002	-3.9266791E-002	9.834132577644521E-001	3.8615482E-005
2	1	0	1	2.070949947683403E+001	-3.4232356E-002	-3.4254495E-002	9.834766229771841E-001	3.3688495E-005
2	1	0	1	2.075959947556839E+001	-2.9223440E-002	-2.9246595E-002	9.855971679536566E-001	2.8825361E-005
2	1	0	1	2.080959947430529E+001	-2.4221158E-002	-2.4235297E-002	9.861052948747027E-001	2.3898554E-005
2	1	0	0	2.085969947303965E+001	-1.9213438E-002	-1.9237040E-002	9.864182094389999E-001	1.8975767E-005
2	1	0	0	2.090979947177402E+001	-1.4202687E-002	-1.4230900E-002	9.884274081666398E-001	1.4066211E-005
2	1	0	0	2.095979947051092E+001	-9.2008198E-003	-9.2344610E-003	9.885086642177114E-001	9.1283446E-006
2	1	0	0	2.100979946924781E+001	-4.2042020E-003	-4.2515756E-003	9.864565434863302E-001	4.1939948E-006
2	1	0	1	2.105999946797965E+001	8.1805309E-004	7.7308598E-004	9.868207507521682E-001	7.6289729E-007
2	1	0	1	2.110999946671654E+001	5.8180820E-003	5.7775504E-003	9.872191494618248E-001	5.7037082E-006
2	1	0	1	2.115999946545344E+001	1.0816499E-002	1.0779549E-002	9.876045353009140E-001	1.0645932E-005
2	1	0	0	2.121019946418528E+001	1.5838729E-002	1.5800459E-002	9.892639097903562E-001	1.5630823E-005
2	1	0	0	2.126019946292217E+001	2.0836946E-002	2.0806963E-002	9.894662622042807E-001	2.0587788E-005
2	1	0	0	2.131019946165907E+001	2.5837177E-002	2.5796756E-002	9.897865964442900E-001	2.5533283E-005
2	1	0	1	2.136039946039091E+001	3.0859405E-002	3.0822355E-002	9.879347400487006E-001	3.0450476E-005
2	1	0	1	2.141039945912780E+001	3.5855815E-002	3.5822056E-002	9.891669599574904E-001	3.5433994E-005
2	1	0	1	2.146039945786470E+001	4.0857650E-002	4.0828675E-002	9.904085571586094E-001	4.0437069E-005
2	1	0	0	2.151049945659906E+001	4.5868367E-002	4.5841839E-002	9.910324047063437E-001	4.5430748E-005
2	1	0	0	2.156059945533343E+001	5.0876264E-002	5.0835487E-002	9.923893412270548E-001	5.0448594E-005
2	1	0	0	2.161059945407033E+001	5.5878319E-002	5.5854116E-002	9.933705041113114E-001	5.5483830E-005
2	1	0	1	2.166069945280469E+001	6.0887221E-002	6.0856961E-002	9.954240594367896E-001	6.0578484E-005
2	1	0	1	2.171079945153906E+001	6.5896735E-002	6.5869883E-002	9.951607242119671E-001	6.5551118E-005
2	1	0	1	2.176079945027595E+001	7.0899040E-002	7.0867054E-002	9.968824680435944E-001	7.0646121E-005
2	1	0	0	2.181089944901032E+001	7.5906157E-002	7.5878143E-002	9.984121621808413E-001	7.5757664E-005
2	1	0	0	2.186099944774469E+001	8.0917433E-002	8.0893748E-002	1.000550140391093E+000	8.0938247E-005
2	1	0	0	2.191099944648158E+001	8.5918657E-002	8.5886642E-002	1.000053560749336E+000	8.5891239E-005
2	1	0	0	2.196099944521848E+001	9.0915918E-002	9.0881340E-002	9.998513988487923E-001	9.0867834E-005
2	1	0	1	2.201119944395032E+001	9.5938094E-002	9.5911004E-002	1.000780337896981E+000	9.5985844E-005
2	1	0	1	2.204389944312425E+001	9.9205501E-002	9.9174477E-002	1.001643191640168E+000	9.9337441E-005
2	1	0	0	2.205179944292468E+001	1.0001159E-001	9.9974379E-002	9.898488819599152E-001	9.8959528E-005