EC-Lab ASCII FILE
Nb header lines : 55                          

I-V Characterization

Run on channel : 1 (SN 6514)
User : 
CE vs. WE compliance from -10 V to 10 V
Electrode connection : standard
Ewe ctrl range : min = -1.10 V, max = 0.20 V
Safety Limits :
	Do not start on E overload
Acquisition started on : 06/15/2016 19:23:36
Saved on :
	File : B125-G54-UN-G-D1GB-C11 FW 100mVs_06_IVC_C01.mpr
	Directory : E:\EC-Lab measurements\B125-G54-UN-G-D1GB\
	Host : 10.0.2.15
Device : VSP (SN 0295)
Address : USB
EC-Lab for windows v11.01 (software)
Internet server v11.00 (firmware)
Command interpretor v11.00 (firmware)
Electrode material : 
Initial state : 
Electrolyte : 
Comments : 
Electrode surface area : 0.001 cm²
Characteristic mass : 0.001 g
Equivalent Weight : 0.000 g/eq.
Density : 0.000 g/cm3
tR (h:m:s)          0:00:0.0000         
dER/dt (mV/h)       0.0                 
dER (mV)            0                   
dtR (s)             0.0000              
dE/dt               100.000             
dE/dt unit          mV/s                
Ei (V)              0.100               
vs.                 Ref                 
EL (V)              -1.000              
vs.                 Ref                 
record              <I>                 
dI                  0.000               
unit dI             µA                  
tI (s)              0.1000              
step percent        100                 
N                   100                 
E range min (V)     -1.100              
E range max (V)     0.200               
I Range             Auto                
I Range min         Unset               
I Range max         Unset               
I Range init        Unset               
Bandwidth           5                   

mode	ox/red	error	control changes	time/s	control/V	Ewe/V	<I>/mA	P/W
2	0	0	0	5.505539860918361E+001	9.9997252E-002	9.9917807E-002	5.810911580920219E-002	5.8061355E-006
2	0	0	1	5.508069860854448E+001	9.7468868E-002	9.7381756E-002	1.184293847818916E+000	1.1532861E-004
2	0	0	1	5.513079860727885E+001	9.2456542E-002	9.2363976E-002	1.182553511354531E+000	1.0922534E-004
2	0	0	1	5.518079860601574E+001	8.7456465E-002	8.7368339E-002	1.181394242629009E+000	1.0321645E-004
2	0	0	1	5.523079860475264E+001	8.2458287E-002	8.2364477E-002	1.180350045442292E+000	9.7218915E-005
2	0	0	0	5.528099860348448E+001	7.7435926E-002	7.7361248E-002	1.180418386541875E+000	9.1318638E-005
2	0	0	0	5.533099860222137E+001	7.2437815E-002	7.2340153E-002	1.178103588059914E+000	8.5224194E-005
2	0	0	0	5.538099860095826E+001	6.7437403E-002	6.7339420E-002	1.178084336765131E+000	7.9331519E-005
2	0	0	1	5.543109859969263E+001	6.2425356E-002	6.2336307E-002	1.178945890788705E+000	7.3491130E-005
2	0	0	1	5.548119859842700E+001	5.7418954E-002	5.7328966E-002	1.177730171999130E+000	6.7518049E-005
2	0	0	1	5.553119859716389E+001	5.2416533E-002	5.2320220E-002	1.175617349667043E+000	6.1508559E-005
2	0	0	0	5.558129859589826E+001	4.7406722E-002	4.7309816E-002	1.175058506407209E+000	5.5591801E-005
2	0	0	0	5.563139859463263E+001	4.2398281E-002	4.2299479E-002	1.174936053680488E+000	4.9699182E-005
2	0	0	0	5.568139859336952E+001	3.7395880E-002	3.7306253E-002	1.174560430234695E+000	4.3818447E-005
2	0	0	1	5.573149859210389E+001	3.2388054E-002	3.2296732E-002	1.172912327975840E+000	3.7881236E-005
2	0	0	1	5.578159859083826E+001	2.7377391E-002	2.7272610E-002	1.172509652497370E+000	3.1977397E-005
2	0	0	1	5.583159858957515E+001	2.2375613E-002	2.2288397E-002	1.171683797250425E+000	2.6114954E-005
2	0	0	1	5.588159858831204E+001	1.7378885E-002	1.7279692E-002	1.170761093011295E+000	2.0230391E-005
2	0	0	0	5.593179858704389E+001	1.2356520E-002	1.2249930E-002	1.169416161626161E+000	1.4325266E-005
2	0	0	0	5.598179858578078E+001	7.3569622E-003	7.2519323E-003	1.166362548913886E+000	8.4583826E-006
2	0	0	0	5.603179858451767E+001	2.3582140E-003	2.2625253E-003	1.162322197299432E+000	2.6297832E-006
2	0	0	1	5.608199858324951E+001	-2.6641628E-003	-2.7716344E-003	1.160322279740722E+000	3.2159892E-006
2	0	0	1	5.613199858198641E+001	-7.6617226E-003	-7.7711153E-003	1.157819646684485E+000	8.9975501E-006
2	0	0	1	5.618199858072330E+001	-1.2662713E-002	-1.2768674E-002	1.153594516472772E+000	1.4729872E-005
2	0	0	0	5.623209857945767E+001	-1.7674204E-002	-1.7763061E-002	1.148175572286799E+000	2.0395113E-005
2	0	0	0	5.628219857819204E+001	-2.2681244E-002	-2.2764241E-002	1.145841269659385E+000	2.6084208E-005
2	0	0	0	5.633219857692893E+001	-2.7683457E-002	-2.7776200E-002	1.140461714870092E+000	3.1677693E-005
2	0	0	1	5.638229857566330E+001	-3.2692939E-002	-3.2776136E-002	1.135389545622939E+000	3.7213682E-005
2	0	0	1	5.643239857439767E+001	-3.7701990E-002	-3.7775584E-002	1.128538166817165E+000	4.2631189E-005
2	0	0	1	5.648239857313456E+001	-4.2704396E-002	-4.2789239E-002	1.122419738321545E+000	4.8027487E-005
2	0	0	0	5.653249857186893E+001	-4.7711659E-002	-4.7808751E-002	1.116124608666135E+000	5.3360523E-005
2	0	0	0	5.658259857060330E+001	-5.2722931E-002	-5.2809693E-002	1.109835539444408E+000	5.8610072E-005
2	0	0	0	5.663259856934019E+001	-5.7724137E-002	-5.7808969E-002	1.103575205802494E+000	6.3796542E-005
2	0	0	0	5.668259856807708E+001	-6.2721238E-002	-6.2801100E-002	1.097230823295931E+000	6.8907306E-005
2	0	0	1	5.673279856680892E+001	-6.7743629E-002	-6.7825481E-002	1.089470027729707E+000	7.3893832E-005
2	0	0	1	5.678279856554582E+001	-7.2742835E-002	-7.2832435E-002	1.082046830318504E+000	7.8808109E-005
2	0	0	1	5.683279856428271E+001	-7.7742167E-002	-7.7826597E-002	1.073500645991634E+000	8.3546904E-005
2	0	0	0	5.688299856301455E+001	-8.2764611E-002	-8.2846493E-002	1.063876950653015E+000	8.8138477E-005
2	0	0	0	5.693299856175145E+001	-8.7761573E-002	-8.7849058E-002	1.056147319522282E+000	9.2781549E-005
2	0	0	0	5.698299856048834E+001	-9.2762947E-002	-9.2841201E-002	1.047275682519491E+000	9.7230331E-005
2	0	0	1	5.703309855922271E+001	-9.7774096E-002	-9.7843610E-002	1.037394757658467E+000	1.0150245E-004
2	0	0	1	5.708319855795708E+001	-1.0278147E-001	-1.0285465E-001	1.028839804027786E+000	1.0582095E-004
2	0	0	1	5.713319855669397E+001	-1.0778385E-001	-1.0786053E-001	1.019975817743553E+000	1.1001513E-004
2	0	0	0	5.718329855542834E+001	-1.1279289E-001	-1.1287648E-001	1.010485997502727E+000	1.1406010E-004
2	0	0	0	5.723339855416270E+001	-1.1780249E-001	-1.1787017E-001	1.001486042264105E+000	1.1804533E-004
2	0	0	0	5.728339855289960E+001	-1.2280480E-001	-1.2289646E-001	9.924300973587425E-001	1.2196614E-004
2	0	0	1	5.733349855163397E+001	-1.2781152E-001	-1.2788907E-001	9.835984957097903E-001	1.2579150E-004
2	0	0	1	5.738359855036833E+001	-1.3282314E-001	-1.3290355E-001	9.740531348841941E-001	1.2945512E-004
2	0	0	1	5.743359854910523E+001	-1.3782398E-001	-1.3788706E-001	9.647857108912810E-001	1.3303147E-004
2	0	0	1	5.748359854784212E+001	-1.4282174E-001	-1.4292230E-001	9.561648036438619E-001	1.3665727E-004
2	0	0	0	5.753379854657396E+001	-1.4784418E-001	-1.4793703E-001	9.464480270380164E-001	1.4001472E-004
2	0	0	0	5.758379854531086E+001	-1.5284264E-001	-1.5293525E-001	9.361944975611980E-001	1.4317714E-004
2	0	0	0	5.763379854404775E+001	-1.5784261E-001	-1.5793024E-001	9.258564378279637E-001	1.4622073E-004
2	0	0	1	5.768399854277959E+001	-1.6286482E-001	-1.6296479E-001	9.172355187631318E-001	1.4947710E-004
2	0	0	1	5.773399854151648E+001	-1.6786128E-001	-1.6795872E-001	9.090484642024492E-001	1.5268262E-004
2	0	0	1	5.778399854025338E+001	-1.7286325E-001	-1.7296691E-001	8.990106516153542E-001	1.5549910E-004
2	0	0	0	5.783409853898775E+001	-1.7787400E-001	-1.7797071E-001	8.888163555045377E-001	1.5818328E-004
2	0	0	0	5.788419853772211E+001	-1.8288201E-001	-1.8300094E-001	8.796689225065499E-001	1.6098024E-004
2	0	0	0	5.793419853645901E+001	-1.8788421E-001	-1.8799092E-001	8.695030355727882E-001	1.6345868E-004
2	0	0	1	5.798429853519337E+001	-1.9289270E-001	-1.9300297E-001	8.593356242923900E-001	1.6585433E-004
2	0	0	1	5.803439853392774E+001	-1.9790259E-001	-1.9800903E-001	8.490215695274870E-001	1.6811394E-004
2	0	0	1	5.808439853266464E+001	-2.0290504E-001	-2.0302831E-001	8.391247250631793E-001	1.7036607E-004
2	0	0	0	5.813449853139900E+001	-2.0791149E-001	-2.0803839E-001	8.289672229326062E-001	1.7245700E-004
2	0	0	0	5.818459853013337E+001	-2.1292375E-001	-2.1303174E-001	8.192383298085311E-001	1.7452377E-004
2	0	0	0	5.823459852887027E+001	-2.1792375E-001	-2.1803324E-001	8.092942465051749E-001	1.7645305E-004
2	0	0	0	5.828459852760716E+001	-2.2292231E-001	-2.2304775E-001	7.991936955521624E-001	1.7825836E-004
2	0	0	1	5.833479852633900E+001	-2.2794460E-001	-2.2806038E-001	7.900870226865813E-001	1.8018755E-004
2	0	0	1	5.838479852507589E+001	-2.3294246E-001	-2.3305815E-001	7.809129699126700E-001	1.8199814E-004
2	0	0	1	5.843479852381279E+001	-2.3794290E-001	-2.3806088E-001	7.707195236621303E-001	1.8347817E-004
2	0	0	0	5.848489852254716E+001	-2.4295497E-001	-2.4306494E-001	7.609625412628862E-001	1.8496331E-004
2	0	0	0	5.853499852128152E+001	-2.4796148E-001	-2.4805298E-001	7.516214679641955E-001	1.8644195E-004
2	0	0	0	5.858499852001842E+001	-2.5296381E-001	-2.5306061E-001	7.417273896437386E-001	1.8770198E-004
2	0	0	1	5.863509851875278E+001	-2.5797385E-001	-2.5806144E-001	7.314629017073302E-001	1.8876237E-004
2	0	0	1	5.868519851748715E+001	-2.6298198E-001	-2.6308024E-001	7.215527118730183E-001	1.8982626E-004
2	0	0	1	5.873519851622405E+001	-2.6798448E-001	-2.6807588E-001	7.111319127562865E-001	1.9063732E-004
2	0	0	0	5.878529851495841E+001	-2.7299249E-001	-2.7309036E-001	7.004535117600881E-001	1.9128711E-004
2	0	0	0	5.883539851369278E+001	-2.7800319E-001	-2.7809995E-001	6.907417552485740E-001	1.9209525E-004
2	0	0	0	5.888539851242967E+001	-2.8300476E-001	-2.8309375E-001	6.808489973166232E-001	1.9274409E-004
2	0	0	0	5.893539851116657E+001	-2.8800178E-001	-2.8808624E-001	6.699662132996762E-001	1.9300805E-004
2	0	0	1	5.898559850989841E+001	-2.9302397E-001	-2.9311782E-001	6.588439647517159E-001	1.9311890E-004
2	0	0	1	5.903559850863530E+001	-2.9802349E-001	-2.9812753E-001	6.480274466026117E-001	1.9319482E-004
2	0	0	1	5.908559850737220E+001	-3.0302268E-001	-3.0310962E-001	6.375481215079120E-001	1.9324696E-004
2	0	0	0	5.913579850610404E+001	-3.0804467E-001	-3.0813146E-001	6.267672081453588E-001	1.9312669E-004
2	0	0	0	5.918579850484093E+001	-3.1304225E-001	-3.1313336E-001	6.152017082557799E-001	1.9264017E-004
2	0	0	0	5.923579850357783E+001	-3.1804350E-001	-3.1814551E-001	6.044466473639163E-001	1.9230199E-004
2	0	0	1	5.928589850231219E+001	-3.2305506E-001	-3.2313979E-001	5.934427504298414E-001	1.9176496E-004
2	0	0	1	5.933599850104656E+001	-3.2806170E-001	-3.2813126E-001	5.816618929068280E-001	1.9086145E-004
2	0	0	1	5.938599849978345E+001	-3.3306438E-001	-3.3313069E-001	5.708790498924090E-001	1.9017734E-004
2	0	0	0	5.943609849851782E+001	-3.3807343E-001	-3.3813328E-001	5.598397734991316E-001	1.8930045E-004
2	0	0	0	5.948619849725219E+001	-3.4308267E-001	-3.4316832E-001	5.484812735837865E-001	1.8822140E-004
2	0	0	0	5.953619849598908E+001	-3.4808499E-001	-3.4817234E-001	5.364098996359088E-001	1.8676309E-004
2	0	0	1	5.958629849472345E+001	-3.5309243E-001	-3.5318616E-001	5.245358181093778E-001	1.8525879E-004
2	0	0	1	5.963639849345782E+001	-3.5810342E-001	-3.5819718E-001	5.117187995109447E-001	1.8329623E-004
2	0	0	1	5.968639849219471E+001	-3.6310470E-001	-3.6322537E-001	4.993756987493758E-001	1.8138593E-004
2	0	0	1	5.973639849093161E+001	-3.6810192E-001	-3.6818725E-001	4.870187525297389E-001	1.7931410E-004
2	0	0	0	5.980159848928452E+001	-3.7462372E-001	-3.7467110E-001	4.712176949192108E-001	1.7655165E-004
2	0	0	0	5.986659848764248E+001	-3.8112456E-001	-3.8118529E-001	4.550843365006703E-001	1.7347146E-004
2	0	0	1	5.991669848637684E+001	-3.8613373E-001	-3.8618523E-001	4.415377730765511E-001	1.7051537E-004
2	0	0	1	5.996679848511121E+001	-3.9114282E-001	-3.9117807E-001	4.284298828751716E-001	1.6759237E-004
2	0	0	1	6.001679848384811E+001	-3.9614555E-001	-3.9618984E-001	4.155528082655424E-001	1.6463779E-004
2	0	0	0	6.006689848258247E+001	-4.0115207E-001	-4.0120938E-001	4.020020563360349E-001	1.6128700E-004
2	0	0	0	6.011699848131684E+001	-4.0616366E-001	-4.0620744E-001	3.876070517449577E-001	1.5744887E-004
2	0	0	0	6.016699848005374E+001	-4.1116464E-001	-4.1119176E-001	3.732996712154328E-001	1.5349775E-004
2	0	0	0	6.021699847879063E+001	-4.1616243E-001	-4.1620809E-001	3.590190847791153E-001	1.4942665E-004
2	0	0	1	6.026719847752247E+001	-4.2118469E-001	-4.2122132E-001	3.444539364428958E-001	1.4509134E-004
2	0	0	1	6.031719847625936E+001	-4.2618343E-001	-4.2621249E-001	3.300527208124890E-001	1.4067259E-004
2	0	0	1	6.036719847499626E+001	-4.3118313E-001	-4.3120530E-001	3.145806753977600E-001	1.3564885E-004
2	0	0	0	6.041739847372810E+001	-4.3620518E-001	-4.3624294E-001	2.989949608435774E-001	1.3043443E-004
2	0	0	0	6.046739847246499E+001	-4.4120204E-001	-4.4124287E-001	2.831873897870261E-001	1.2495441E-004
2	0	0	0	6.051739847120189E+001	-4.4620416E-001	-4.4623232E-001	2.670092574192940E-001	1.1914816E-004
2	0	0	1	6.056749846993625E+001	-4.5121485E-001	-4.5124587E-001	2.506090161498560E-001	1.1308629E-004
2	0	0	1	6.061759846867062E+001	-4.5622227E-001	-4.5626882E-001	2.342643822294272E-001	1.0688754E-004
2	0	0	1	6.066759846740752E+001	-4.6122503E-001	-4.6127245E-001	2.175294529547784E-001	1.0034034E-004
2	0	0	0	6.071769846614188E+001	-4.6623310E-001	-4.6627352E-001	2.005364655542379E-001	9.3504845E-005
2	0	0	0	6.076779846487625E+001	-4.7124317E-001	-4.7128448E-001	1.832156994182759E-001	8.6346714E-005
2	0	0	0	6.081779846361314E+001	-4.7624570E-001	-4.7630095E-001	1.657492712158750E-001	7.8946534E-005
2	0	0	1	6.086789846234751E+001	-4.8125231E-001	-4.8130083E-001	1.480304030511062E-001	7.1247159E-005
2	0	0	1	6.091799846108188E+001	-4.8626402E-001	-4.8631668E-001	1.300216773943476E-001	6.3231710E-005
2	0	0	1	6.096799845981877E+001	-4.9126473E-001	-4.9132046E-001	1.117584152302564E-001	5.4909196E-005
2	0	0	1	6.101799845855567E+001	-4.9626252E-001	-4.9631786E-001	9.332389713213352E-002	4.6318317E-005
2	0	0	0	6.106819845728751E+001	-5.0128496E-001	-5.0134587E-001	7.433574626905962E-002	3.7267921E-005
2	0	0	0	6.111819845602440E+001	-5.0628322E-001	-5.0634897E-001	5.557923598748016E-002	2.8142489E-005
2	0	0	0	6.116819845476130E+001	-5.1128370E-001	-5.1134175E-001	3.645764561248999E-002	1.8642317E-005
2	0	0	1	6.123359845310915E+001	-5.1782608E-001	-5.1791334E-001	1.140277715783061E-002	5.9056506E-006
2	0	0	0	6.129889845145954E+001	-5.2435595E-001	-5.2441126E-001	-1.470027324931623E-002	7.7089890E-006
2	0	0	0	6.134899845019390E+001	-5.2936172E-001	-5.2940923E-001	-3.465717014221048E-002	1.8347826E-005
2	0	0	0	6.139899844893080E+001	-5.3436434E-001	-5.3442091E-001	-5.494930306403689E-002	2.9366056E-005
2	0	0	1	6.144909844766516E+001	-5.3937453E-001	-5.3942961E-001	-7.549724959621473E-002	4.0725452E-005
2	0	0	1	6.151439844601555E+001	-5.4590577E-001	-5.4595220E-001	-1.027016161263101E-001	5.6070174E-005
2	0	0	0	6.157979844436341E+001	-5.5244267E-001	-5.5252147E-001	-1.303260587080697E-001	7.2007948E-005
2	0	0	0	6.162979844310030E+001	-5.5744523E-001	-5.5752593E-001	-1.516766990853365E-001	8.4563690E-005
2	0	0	1	6.167989844183467E+001	-5.6245291E-001	-5.6252027E-001	-1.730399305106456E-001	9.7338467E-005
2	0	0	1	6.172999844056903E+001	-5.6746364E-001	-5.6752658E-001	-1.946844746215807E-001	1.1048861E-004
2	0	0	1	6.177999843930593E+001	-5.7246566E-001	-5.7254148E-001	-2.163939129546124E-001	1.2389450E-004
2	0	0	1	6.182999843804282E+001	-5.7746226E-001	-5.7753670E-001	-2.382253624412884E-001	1.3758389E-004
2	0	0	0	6.188019843677466E+001	-5.8248425E-001	-5.8254015E-001	-2.604043848035817E-001	1.5169600E-004
2	0	0	0	6.193019843551156E+001	-5.8748454E-001	-5.8754820E-001	-2.826132162817340E-001	1.6604889E-004
2	0	0	0	6.198019843424845E+001	-5.9248269E-001	-5.9254670E-001	-3.050223576910679E-001	1.8074000E-004
2	0	0	1	6.203039843298029E+001	-5.9750521E-001	-5.9758240E-001	-3.274013788282177E-001	1.9564931E-004
2	0	0	1	6.208039843171719E+001	-6.0250318E-001	-6.0256696E-001	-3.499994587293319E-001	2.1089811E-004
2	0	0	1	6.213039843045408E+001	-6.0750401E-001	-6.0757279E-001	-3.727704746832003E-001	2.2648519E-004
2	0	0	0	6.218049842918845E+001	-6.1251557E-001	-6.1259925E-001	-3.955237711135586E-001	2.4229757E-004
2	0	0	0	6.223059842792281E+001	-6.1752260E-001	-6.1760294E-001	-4.183622365458990E-001	2.5838174E-004
2	0	0	0	6.228059842665971E+001	-6.2252462E-001	-6.2259817E-001	-4.411930261949237E-001	2.7468597E-004
2	0	0	1	6.233069842539408E+001	-6.2753409E-001	-6.2760013E-001	-4.640427767434128E-001	2.9123330E-004
2	0	0	1	6.238079842412844E+001	-6.3254315E-001	-6.3261539E-001	-4.868832698978354E-001	3.0800985E-004
2	0	0	1	6.243079842286534E+001	-6.3754547E-001	-6.3760972E-001	-5.097025112638178E-001	3.2499127E-004
2	0	0	0	6.248089842159970E+001	-6.4255309E-001	-6.4260161E-001	-5.326568574129942E-001	3.4228616E-004
2	0	0	0	6.253099842033407E+001	-6.4756393E-001	-6.4759654E-001	-5.552766386665748E-001	3.5959523E-004
2	0	0	0	6.258099841907097E+001	-6.5256560E-001	-6.5260565E-001	-5.779484422780037E-001	3.7717243E-004
2	0	0	0	6.263099841780786E+001	-6.5756243E-001	-6.5760034E-001	-6.007206609719091E-001	3.9503412E-004
2	0	0	1	6.268119841653970E+001	-6.6258472E-001	-6.6261518E-001	-6.238096249674641E-001	4.1334573E-004
2	0	0	1	6.273119841527659E+001	-6.6758418E-001	-6.6762239E-001	-6.465043612450323E-001	4.3162078E-004
2	0	0	1	6.278119841401349E+001	-6.7258358E-001	-6.7263019E-001	-6.695390602489706E-001	4.5035218E-004
2	0	0	0	6.283139841274533E+001	-6.7760575E-001	-6.7763931E-001	-6.921008891990392E-001	4.6899475E-004
2	0	0	0	6.288139841148222E+001	-6.8260318E-001	-6.8264186E-001	-7.149814024526115E-001	4.8807624E-004
2	0	0	0	6.293139841021912E+001	-6.8760407E-001	-6.8762541E-001	-7.379483099515403E-001	5.0743204E-004
2	0	0	1	6.298149840895348E+001	-6.9261533E-001	-6.9264698E-001	-7.607579873538497E-001	5.2693672E-004
2	0	0	1	6.303159840768785E+001	-6.9762278E-001	-6.9766295E-001	-7.829473925825017E-001	5.4623338E-004
2	0	0	1	6.308159840642475E+001	-7.0262504E-001	-7.0266604E-001	-8.057338665267548E-001	5.6616182E-004
2	0	0	0	6.313169840515911E+001	-7.0763409E-001	-7.0767856E-001	-8.280411173137541E-001	5.8598694E-004
2	0	0	0	6.318179840389348E+001	-7.1264398E-001	-7.1267760E-001	-8.501444712299246E-001	6.0587894E-004
2	0	0	0	6.323179840263037E+001	-7.1764606E-001	-7.1767431E-001	-8.719758495840999E-001	6.2579470E-004
2	0	0	1	6.328189840136474E+001	-7.2265267E-001	-7.2267884E-001	-8.942690363009795E-001	6.4626930E-004
2	0	0	1	6.333199840009911E+001	-7.2766453E-001	-7.2769761E-001	-9.166510807621115E-001	6.6704478E-004
2	0	0	1	6.338199839883600E+001	-7.3266530E-001	-7.3270261E-001	-9.382597745733454E-001	6.8746536E-004
2	0	0	1	6.343199839757290E+001	-7.3766303E-001	-7.3768258E-001	-9.595571044661337E-001	7.0784858E-004
2	0	0	0	6.348219839630474E+001	-7.4268538E-001	-7.4271095E-001	-9.810110912955358E-001	7.2860770E-004
2	0	0	0	6.353219839504163E+001	-7.4768442E-001	-7.4771321E-001	-1.002571237414315E+000	7.4963574E-004
2	0	0	0	6.359719839339959E+001	-7.5418401E-001	-7.5424790E-001	-1.033218032347352E+000	7.7930256E-004
2	0	0	1	6.366239839175250E+001	-7.6070386E-001	-7.6079822E-001	-1.060307156368109E+000	8.0667977E-004
2	0	0	1	6.371239839048940E+001	-7.6570600E-001	-7.6581615E-001	-1.081950806306290E+000	8.2857540E-004
2	0	0	0	6.376249838922377E+001	-7.7071279E-001	-7.7081490E-001	-1.102449093111392E+000	8.4978418E-004
2	0	0	0	6.381259838795813E+001	-7.7572495E-001	-7.7582610E-001	-1.123072600644946E+000	8.7130902E-004
2	0	0	0	6.386259838669503E+001	-7.8072560E-001	-7.8082895E-001	-1.144623279963629E+000	8.9375500E-004
2	0	0	0	6.391259838543192E+001	-7.8572291E-001	-7.8582656E-001	-1.164917564755589E+000	9.1542315E-004
2	0	0	1	6.396279838416376E+001	-7.9074568E-001	-7.9084170E-001	-1.186162481005914E+000	9.3806675E-004
2	0	0	1	6.401279838290066E+001	-7.9574400E-001	-7.9585832E-001	-1.207340872154610E+000	9.6087228E-004
2	0	0	1	6.406279838163755E+001	-8.0074400E-001	-8.0084419E-001	-1.228473910495121E+000	9.8381622E-004
2	0	0	0	6.411299838036939E+001	-8.0576640E-001	-8.0587363E-001	-1.249163656755240E+000	1.0066681E-003
2	0	0	0	6.416299837910628E+001	-8.1076306E-001	-8.1087571E-001	-1.269089888695554E+000	1.0290742E-003
2	0	0	0	6.421299837784318E+001	-8.1576502E-001	-8.1588459E-001	-1.288742477730800E+000	1.0514652E-003
2	0	0	1	6.426309837657755E+001	-8.2077527E-001	-8.2089937E-001	-1.309284654219692E+000	1.0747910E-003
2	0	0	1	6.431319837531191E+001	-8.2578319E-001	-8.2591343E-001	-1.328843488615798E+000	1.0975096E-003
2	0	0	1	6.436319837404881E+001	-8.3078563E-001	-8.3090729E-001	-1.349059347094569E+000	1.1209432E-003
2	0	0	0	6.441329837278317E+001	-8.3579391E-001	-8.3592576E-001	-1.368166756437255E+000	1.1436858E-003
2	0	0	0	6.446339837151754E+001	-8.4080440E-001	-8.4091282E-001	-1.389375288772953E+000	1.1683435E-003
2	0	0	0	6.451339837025444E+001	-8.4580678E-001	-8.4593356E-001	-1.409607132108761E+000	1.1924340E-003
2	0	0	0	6.456339836899133E+001	-8.5080272E-001	-8.5093719E-001	-1.429469090129704E+000	1.2163884E-003
2	0	0	1	6.461359836772317E+001	-8.5582507E-001	-8.5594028E-001	-1.449117844153836E+000	1.2403583E-003
2	0	0	1	6.466359836646006E+001	-8.6082488E-001	-8.6094689E-001	-1.469913120424069E+000	1.2655171E-003
2	0	0	1	6.471359836519696E+001	-8.6582386E-001	-8.6595160E-001	-1.490138009820168E+000	1.2903874E-003
2	0	0	0	6.476379836392880E+001	-8.7084591E-001	-8.7097359E-001	-1.511187612016471E+000	1.3162046E-003
2	0	0	0	6.481379836266569E+001	-8.7584418E-001	-8.7595552E-001	-1.532208611221680E+000	1.3421465E-003
2	0	0	0	6.486379836140259E+001	-8.8084435E-001	-8.8094682E-001	-1.553459608314590E+000	1.3685153E-003
2	0	0	1	6.491389836013695E+001	-8.8585669E-001	-8.8597232E-001	-1.573609042501069E+000	1.3941741E-003
2	0	0	1	6.496399835887132E+001	-8.9086276E-001	-8.9097375E-001	-1.593204073186055E+000	1.4195030E-003
2	0	0	1	6.501399835760822E+001	-8.9586508E-001	-8.9596468E-001	-1.614057624372688E+000	1.4461386E-003
2	0	0	0	6.506409835634258E+001	-9.0087521E-001	-9.0098470E-001	-1.635407493153082E+000	1.4734771E-003
2	0	0	0	6.511419835507695E+001	-9.0588409E-001	-9.0599322E-001	-1.656782995360503E+000	1.5010341E-003
2	0	0	0	6.516419835381384E+001	-9.1088629E-001	-9.1101027E-001	-1.676522063651525E+000	1.5273289E-003
2	0	0	1	6.521429835254821E+001	-9.1589391E-001	-9.1599149E-001	-1.697409314432061E+000	1.5548124E-003
2	0	0	1	6.526439835128258E+001	-9.2090458E-001	-9.2100930E-001	-1.718262006794653E+000	1.5825353E-003
2	0	0	1	6.531439835001947E+001	-9.2590600E-001	-9.2602026E-001	-1.739512845485123E+000	1.6108241E-003
2	0	0	1	6.536439834875637E+001	-9.3090308E-001	-9.3103158E-001	-1.761334165224115E+000	1.6398578E-003
2	0	0	0	6.541459834748821E+001	-9.3592560E-001	-9.3604857E-001	-1.781711816980478E+000	1.6677688E-003
2	0	0	0	6.546459834622510E+001	-9.4092518E-001	-9.4105172E-001	-1.802293353210175E+000	1.6960512E-003
2	0	0	0	6.551459834496200E+001	-9.4592398E-001	-9.4605196E-001	-1.822953879879510E+000	1.7246091E-003
2	0	0	1	6.556479834369384E+001	-9.5094633E-001	-9.5106781E-001	-1.844167207449047E+000	1.7539280E-003
2	0	0	1	6.561479834243073E+001	-9.5594341E-001	-9.5602220E-001	-1.865155634298752E+000	1.7831302E-003
2	0	0	1	6.566479834116763E+001	-9.6094471E-001	-9.6103984E-001	-1.887598551320949E+000	1.8140575E-003
2	0	0	0	6.571489833990199E+001	-9.6595615E-001	-9.6607006E-001	-1.909445103056139E+000	1.8446577E-003
2	0	0	0	6.576499833863636E+001	-9.7096354E-001	-9.7107631E-001	-1.931152376994682E+000	1.8752964E-003
2	0	0	0	6.581499833737325E+001	-9.7596562E-001	-9.7607499E-001	-1.950705168672975E+000	1.9040345E-003
2	0	0	1	6.586509833610762E+001	-9.8097515E-001	-9.8109519E-001	-1.972080485543946E+000	1.9347987E-003
2	0	0	1	6.591519833484199E+001	-9.8598397E-001	-9.8610866E-001	-1.995629342754771E+000	1.9679074E-003
2	0	0	1	6.596519833357888E+001	-9.9098617E-001	-9.9109274E-001	-2.017617198991593E+000	1.9996457E-003
2	0	0	0	6.601529833231325E+001	-9.9599367E-001	-9.9610531E-001	-2.040043522851370E+000	2.0320981E-003
2	0	0	0	6.604779833149223E+001	-9.9924600E-001	-9.9934810E-001	-2.053715173122725E+000	2.0523763E-003
2	0	0	0	6.605539833130024E+001	-1.0000215E+000	-1.0001143E+000	-2.065058588981628E+000	2.0652947E-003