EC-Lab ASCII FILE
Nb header lines : 55                          

I-V Characterization

Run on channel : 1 (SN 6514)
User : 
CE vs. WE compliance from -10 V to 10 V
Electrode connection : standard
Ewe ctrl range : min = -1.10 V, max = 0.20 V
Safety Limits :
	Do not start on E overload
Acquisition started on : 06/15/2016 18:07:37
Saved on :
	File : B125-G54-UN-G-D1GB-C7 FW 100mVs_01_IVC_C01.mpr
	Directory : E:\EC-Lab measurements\B125-G54-UN-G-D1GB\
	Host : 10.0.2.15
Device : VSP (SN 0295)
Address : USB
EC-Lab for windows v11.01 (software)
Internet server v11.00 (firmware)
Command interpretor v11.00 (firmware)
Electrode material : 
Initial state : 
Electrolyte : 
Comments : 
Electrode surface area : 0.001 cm²
Characteristic mass : 0.001 g
Equivalent Weight : 0.000 g/eq.
Density : 0.000 g/cm3
tR (h:m:s)          0:00:0.0000         
dER/dt (mV/h)       0.0                 
dER (mV)            0                   
dtR (s)             0.0000              
dE/dt               100.000             
dE/dt unit          mV/s                
Ei (V)              0.100               
vs.                 Ref                 
EL (V)              -1.000              
vs.                 Ref                 
record              <I>                 
dI                  0.000               
unit dI             µA                  
tI (s)              0.1000              
step percent        100                 
N                   100                 
E range min (V)     -1.100              
E range max (V)     0.200               
I Range             Auto                
I Range min         Unset               
I Range max         Unset               
I Range init        Unset               
Bandwidth           5                   

mode	ox/red	error	control changes	time/s	control/V	Ewe/V	<I>/mA	P/W
2	0	0	1	1.399999964633025E-001	9.1056280E-002	9.0898193E-002	1.140687644481659E+000	1.0368645E-004
2	0	0	0	1.652999958241708E-001	8.8527918E-002	8.8443860E-002	1.156744620930885E+000	1.0230696E-004
2	0	0	0	2.153999945585383E-001	8.3517686E-002	8.3427981E-002	1.156485938712144E+000	9.6483287E-005
2	0	0	0	2.653999932954321E-001	7.8515433E-002	7.8437552E-002	1.155200338339444E+000	9.0611087E-005
2	0	0	0	3.153999920323258E-001	7.3519088E-002	7.3437892E-002	1.155100928844228E+000	8.4828178E-005
2	0	0	1	3.655999907641672E-001	6.8496928E-002	6.8412676E-002	1.154910720104656E+000	7.9010533E-005
2	0	0	1	4.155999895010609E-001	6.3496701E-002	6.3405178E-002	1.153233647019493E+000	7.3120988E-005
2	0	0	1	4.655999882379547E-001	5.8498334E-002	5.8399394E-002	1.153630731101626E+000	6.7371337E-005
2	0	0	0	5.157999869697960E-001	5.3476173E-002	5.3387303E-002	1.152520692329912E+000	6.1529972E-005
2	0	0	0	5.657999857066898E-001	4.8478007E-002	4.8382834E-002	1.151193729933222E+000	5.5698016E-005
2	0	0	0	6.157999844435835E-001	4.3477628E-002	4.3376129E-002	1.150399173221889E+000	4.9899863E-005
2	0	0	1	6.658999831779511E-001	3.8465552E-002	3.8378004E-002	1.150044832591995E+000	4.4136425E-005
2	0	0	1	7.159999819123186E-001	3.3459321E-002	3.3369564E-002	1.148167169728314E+000	3.8313836E-005
2	0	0	1	7.659999806492124E-001	2.8456891E-002	2.8359316E-002	1.147845039019938E+000	3.2552100E-005
2	0	0	0	8.160999793835799E-001	2.3446836E-002	2.3342744E-002	1.146883136517099E+000	2.6771399E-005
2	0	0	0	8.661999781179475E-001	1.8438580E-002	1.8333372E-002	1.146737001224205E+000	2.1023556E-005
2	0	0	0	9.161999768548412E-001	1.3436174E-002	1.3331642E-002	1.144256732943902E+000	1.5254822E-005
2	0	0	1	9.662999755892088E-001	8.4281219E-003	8.3294576E-003	1.143215737955074E+000	9.5223668E-006
2	0	0	1	1.016399974323576E+000	3.4176446E-003	3.3341867E-003	1.142582754830165E+000	3.8095843E-006
2	0	0	1	1.066399973060470E+000	-1.5843570E-003	-1.6774817E-003	1.141791963775500E+000	1.9153351E-006
2	0	0	1	1.116399971797364E+000	-6.5807258E-003	-6.6858199E-003	1.140526035614073E+000	7.6253518E-006
2	0	0	0	1.166599970529205E+000	-1.1603136E-002	-1.1711289E-002	1.139197491557210E+000	1.3341471E-005
2	0	0	0	1.216599969266099E+000	-1.6603136E-002	-1.6699335E-002	1.138702781680394E+000	1.9015579E-005
2	0	0	0	1.266599968002993E+000	-2.1601517E-002	-2.1685567E-002	1.138838743890199E+000	2.4696363E-005
2	0	0	1	1.316799966734834E+000	-2.6623935E-002	-2.6715778E-002	1.135130050200335E+000	3.0325882E-005
2	0	0	1	1.366799965471728E+000	-3.1621929E-002	-3.1714913E-002	1.133310681261244E+000	3.5942849E-005
2	0	0	1	1.416799964208622E+000	-3.6622316E-002	-3.6696445E-002	1.131697782969704E+000	4.1529285E-005
2	0	0	0	1.466899962942989E+000	-4.1634422E-002	-4.1715935E-002	1.130288976707480E+000	4.7151061E-005
2	0	0	0	1.516999961677357E+000	-4.6640713E-002	-4.6734035E-002	1.126364020204202E+000	5.2639534E-005
2	0	0	0	1.566999960414250E+000	-5.1643118E-002	-5.1737063E-002	1.123939908677620E+000	5.8149348E-005
2	0	0	1	1.617099959148618E+000	-5.6653228E-002	-5.6745641E-002	1.121633313443883E+000	6.3647800E-005
2	0	0	1	1.667199957882985E+000	-6.1661530E-002	-6.1761241E-002	1.118123193714611E+000	6.9056674E-005
2	0	0	1	1.717199956619879E+000	-6.6663906E-002	-6.6750072E-002	1.117138235677693E+000	7.4569056E-005
2	0	0	0	1.767299955354247E+000	-7.1672007E-002	-7.1761847E-002	1.114684005370364E+000	7.9991783E-005
2	0	0	0	1.817399954088614E+000	-7.6682515E-002	-7.6768465E-002	1.111104156875507E+000	8.5297761E-005
2	0	0	0	1.867399952825508E+000	-8.1684500E-002	-8.1772402E-002	1.108024610270653E+000	9.0605834E-005
2	0	0	0	1.917399951562402E+000	-8.6680904E-002	-8.6775161E-002	1.105868943817048E+000	9.5961957E-005
2	0	0	1	1.967599950294243E+000	-9.1703348E-002	-9.1795444E-002	1.103379023340872E+000	1.0128516E-004
2	0	0	1	2.017599949031137E+000	-9.6703269E-002	-9.6788853E-002	1.098835837100996E+000	1.0635506E-004
2	0	0	1	2.067599947768031E+000	-1.0170166E-001	-1.0178155E-001	1.096132169894506E+000	1.1156603E-004
2	0	0	0	2.117799946499872E+000	-1.0672413E-001	-1.0681152E-001	1.092091650073066E+000	1.1664796E-004
2	0	0	0	2.167799945236766E+000	-1.1172211E-001	-1.1181393E-001	1.089595046860442E+000	1.2183191E-004
2	0	0	0	2.217799943973660E+000	-1.1672251E-001	-1.1680214E-001	1.085462910654554E+000	1.2678439E-004
2	0	0	1	2.267899942708027E+000	-1.2173460E-001	-1.2181523E-001	1.082555807589024E+000	1.3187178E-004
2	0	0	1	2.317999941442395E+000	-1.2674102E-001	-1.2683007E-001	1.079950482705993E+000	1.3697019E-004
2	0	0	1	2.367999940179288E+000	-1.3174321E-001	-1.3183060E-001	1.076931959859638E+000	1.4197259E-004
2	0	0	0	2.418099938913656E+000	-1.3675348E-001	-1.3682625E-001	1.072966547905352E+000	1.4680998E-004
2	0	0	0	2.468199937648023E+000	-1.4176190E-001	-1.4185815E-001	1.069349681914140E+000	1.5169596E-004
2	0	0	0	2.518199936384917E+000	-1.4676403E-001	-1.4686276E-001	1.064059837191182E+000	1.5627076E-004
2	0	0	1	2.568299935119285E+000	-1.5177214E-001	-1.5187417E-001	1.059767257748693E+000	1.6095127E-004
2	0	0	1	2.618399933853652E+000	-1.5678258E-001	-1.5688619E-001	1.058613671556317E+000	1.6608187E-004
2	0	0	1	2.668399932590546E+000	-1.6178466E-001	-1.6189219E-001	1.055184697984263E+000	1.7082616E-004
2	0	0	1	2.718399931327440E+000	-1.6678111E-001	-1.6689084E-001	1.050407997929328E+000	1.7530347E-004
2	0	0	0	2.768599930059281E+000	-1.7180352E-001	-1.7190945E-001	1.046121089673253E+000	1.7983810E-004
2	0	0	0	2.818599928796175E+000	-1.7680338E-001	-1.7691906E-001	1.042763807158993E+000	1.8448479E-004
2	0	0	0	2.868599927533069E+000	-1.8180189E-001	-1.8191960E-001	1.038327594932371E+000	1.8889214E-004
2	0	0	1	2.918799926264910E+000	-1.8682422E-001	-1.8695422E-001	1.033341164334874E+000	1.9318749E-004
2	0	0	1	2.968799925001804E+000	-1.9182219E-001	-1.9194496E-001	1.029142611351200E+000	1.9753873E-004
2	0	0	1	3.018799923738698E+000	-1.9682269E-001	-1.9694822E-001	1.024754771711794E+000	2.0182363E-004
2	0	0	0	3.068899922473065E+000	-2.0183468E-001	-2.0195745E-001	1.020493481012570E+000	2.0609626E-004
2	0	0	0	3.118999921207433E+000	-2.0684119E-001	-2.0697926E-001	1.017388729442436E+000	2.1057836E-004
2	0	0	0	3.168999919944326E+000	-2.1184371E-001	-2.1196255E-001	1.013227324006825E+000	2.1476625E-004
2	0	0	1	3.219099918678694E+000	-2.1685365E-001	-2.1697408E-001	1.008264555982315E+000	2.1876728E-004
2	0	0	1	3.269199917413061E+000	-2.2186193E-001	-2.2198592E-001	1.004326730337572E+000	2.2294640E-004
2	0	0	1	3.319199916149955E+000	-2.2686449E-001	-2.2698520E-001	9.994512603665875E-001	2.2686065E-004
2	0	0	0	3.369299914884323E+000	-2.3187223E-001	-2.3200178E-001	9.962383548172502E-001	2.3112907E-004
2	0	0	0	3.419399913618690E+000	-2.3688276E-001	-2.3699880E-001	9.922172349911582E-001	2.3515429E-004
2	0	0	0	3.469399912355584E+000	-2.4188484E-001	-2.4202679E-001	9.873109554480282E-001	2.3895570E-004
2	0	0	0	3.519399911092478E+000	-2.4688135E-001	-2.4699523E-001	9.828285375752337E-001	2.4275396E-004
2	0	0	1	3.569599909824319E+000	-2.5190350E-001	-2.5198904E-001	9.781504882376613E-001	2.4648319E-004
2	0	0	1	3.619599908561213E+000	-2.5690368E-001	-2.5699869E-001	9.748708270221300E-001	2.5054053E-004
2	0	0	1	3.669599907298107E+000	-2.6190206E-001	-2.6200697E-001	9.698940193914645E-001	2.5411899E-004
2	0	0	0	3.719799906029948E+000	-2.6692429E-001	-2.6703063E-001	9.647188368425770E-001	2.5760947E-004
2	0	0	0	3.769799904766842E+000	-2.7192232E-001	-2.7201653E-001	9.600464768237931E-001	2.6114850E-004
2	0	0	0	3.819799903503736E+000	-2.7692315E-001	-2.7702788E-001	9.550532971187309E-001	2.6457637E-004
2	0	0	1	3.869899902238103E+000	-2.8193486E-001	-2.8203437E-001	9.498172905170632E-001	2.6788111E-004
2	0	0	1	3.919999900972471E+000	-2.8694144E-001	-2.8704360E-001	9.445918896692564E-001	2.7113906E-004
2	0	0	1	3.969999899709364E+000	-2.9194364E-001	-2.9205072E-001	9.386380700734449E-001	2.7412991E-004
2	0	0	0	4.020099898443732E+000	-2.9695350E-001	-2.9705983E-001	9.329563759175716E-001	2.7714387E-004
2	0	0	0	4.070199897178099E+000	-3.0196208E-001	-3.0206847E-001	9.284393233072028E-001	2.8045225E-004
2	0	0	0	4.120199895914993E+000	-3.0696452E-001	-3.0708376E-001	9.220729095499109E-001	2.8315361E-004
2	0	0	1	4.170299894649361E+000	-3.1197238E-001	-3.1207111E-001	9.162205029574650E-001	2.8592595E-004
2	0	0	1	4.220399893383728E+000	-3.1698295E-001	-3.1709766E-001	9.110728763698184E-001	2.8889909E-004
2	0	0	1	4.270399892120622E+000	-3.2198510E-001	-3.2209140E-001	9.044212888045813E-001	2.9130632E-004
2	0	0	1	4.320399890857516E+000	-3.2698137E-001	-3.2706898E-001	8.982094776496368E-001	2.9377645E-004
2	0	0	0	4.370599889589357E+000	-3.3200371E-001	-3.3207750E-001	8.932856544085652E-001	2.9664006E-004
2	0	0	0	4.420599888326251E+000	-3.3700356E-001	-3.3708924E-001	8.874258696119330E-001	2.9914171E-004
2	0	0	0	4.470599887063145E+000	-3.4200233E-001	-3.4207541E-001	8.815487257508110E-001	3.0155614E-004
2	0	0	1	4.520799885794986E+000	-3.4702453E-001	-3.4713078E-001	8.761365315398235E-001	3.0413395E-004
2	0	0	1	4.570799884531880E+000	-3.5202274E-001	-3.5212603E-001	8.692032575631892E-001	3.0606909E-004
2	0	0	1	4.620799883268774E+000	-3.5702300E-001	-3.5712135E-001	8.627676981587806E-001	3.0811277E-004
2	0	0	0	4.670899882003141E+000	-3.6203521E-001	-3.6213818E-001	8.566944816972590E-001	3.1024177E-004
2	0	0	0	4.720999880737509E+000	-3.6704135E-001	-3.6714876E-001	8.487616644384426E-001	3.1162178E-004
2	0	0	0	4.770999879474402E+000	-3.7204388E-001	-3.7214729E-001	8.415730966196300E-001	3.1318914E-004
2	0	0	1	4.821099878208770E+000	-3.7705383E-001	-3.7716559E-001	8.342648398498262E-001	3.1465598E-004
2	0	0	1	4.871199876943138E+000	-3.8206252E-001	-3.8216996E-001	8.271109510203383E-001	3.1609696E-004
2	0	0	1	4.921199875680031E+000	-3.8706473E-001	-3.8716030E-001	8.192293992352564E-001	3.1717311E-004
2	0	0	0	4.971299874414399E+000	-3.9207283E-001	-3.9217469E-001	8.118546834940261E-001	3.1838886E-004
2	0	0	0	5.021399873148766E+000	-3.9708292E-001	-3.9719433E-001	8.038640958995682E-001	3.1929027E-004
2	0	0	0	5.071399871885660E+000	-4.0208501E-001	-4.0219396E-001	7.968069028737794E-001	3.2047092E-004
2	0	0	0	5.121399870622554E+000	-4.0708169E-001	-4.0716806E-001	7.897069174605562E-001	3.2154343E-004
2	0	0	1	5.171599869354395E+000	-4.1210404E-001	-4.1220090E-001	7.821882482025613E-001	3.2241869E-004
2	0	0	1	5.221599868091289E+000	-4.1710392E-001	-4.1720784E-001	7.745923619211776E-001	3.2316599E-004
2	0	0	1	5.271599866828183E+000	-4.2210269E-001	-4.2220864E-001	7.668597839800375E-001	3.2377482E-004
2	0	0	0	5.321799865560024E+000	-4.2712480E-001	-4.2722034E-001	7.585661717930403E-001	3.2407491E-004
2	0	0	0	5.371799864296918E+000	-4.3212253E-001	-4.3221426E-001	7.503715989928601E-001	3.2432130E-004
2	0	0	0	5.421799863033812E+000	-4.3712333E-001	-4.3721348E-001	7.426245592957752E-001	3.2468548E-004
2	0	0	1	5.471899861768179E+000	-4.4213507E-001	-4.4223726E-001	7.342205369001924E-001	3.2469968E-004
2	0	0	1	5.521999860502547E+000	-4.4714168E-001	-4.4724309E-001	7.257598026806567E-001	3.2459106E-004
2	0	0	1	5.571999859239440E+000	-4.5214415E-001	-4.5225486E-001	7.168217323794404E-001	3.2418611E-004
2	0	0	0	5.622099857973808E+000	-4.5715424E-001	-4.5725921E-001	7.081964280291082E-001	3.2382933E-004
2	0	0	0	5.672199856708176E+000	-4.6216229E-001	-4.6227103E-001	6.989306695008377E-001	3.2309542E-004
2	0	0	0	5.722199855445069E+000	-4.6716502E-001	-4.6726850E-001	6.900524272551039E-001	3.2243977E-004
2	0	0	1	5.772299854179437E+000	-4.7217259E-001	-4.7226599E-001	6.807772560879850E-001	3.2150795E-004
2	0	0	1	5.822399852913804E+000	-4.7718316E-001	-4.7729141E-001	6.711742977288946E-001	3.2034572E-004
2	0	0	1	5.872399851650698E+000	-4.8218527E-001	-4.8229799E-001	6.614451259024197E-001	3.1901366E-004
2	0	0	1	5.922399850387592E+000	-4.8718211E-001	-4.8729843E-001	6.509601422594993E-001	3.1721184E-004
2	0	0	0	5.972599849119433E+000	-4.9220398E-001	-4.9231976E-001	6.401690161221838E-001	3.1516785E-004
2	0	0	0	6.022599847856327E+000	-4.9720424E-001	-4.9733892E-001	6.293943606324026E-001	3.1302232E-004
2	0	0	0	6.072599846593221E+000	-5.0220239E-001	-5.0232911E-001	6.182424409021831E-001	3.1056118E-004
2	0	0	1	6.122799845325062E+000	-5.0722462E-001	-5.0735313E-001	6.066716391081917E-001	3.0779676E-004
2	0	0	1	6.172799844061956E+000	-5.1222277E-001	-5.1234156E-001	5.961980675655489E-001	3.0545704E-004
2	0	0	1	6.222799842798850E+000	-5.1722360E-001	-5.1735765E-001	5.852695010539639E-001	3.0279366E-004
2	0	0	0	6.272899841533217E+000	-5.2223533E-001	-5.2235377E-001	5.740307598493033E-001	2.9984713E-004
2	0	0	0	6.322999840267585E+000	-5.2724195E-001	-5.2736384E-001	5.613105405835412E-001	2.9601488E-004
2	0	0	0	6.372999839004478E+000	-5.3224421E-001	-5.3236544E-001	5.491859393029461E-001	2.9236762E-004
2	0	0	1	6.423099837738846E+000	-5.3725386E-001	-5.3738630E-001	5.364191432740597E-001	2.8826430E-004
2	0	0	1	6.473199836473214E+000	-5.4226279E-001	-5.4239345E-001	5.237986861425590E-001	2.8410499E-004
2	0	0	1	6.523199835210107E+000	-5.4726493E-001	-5.4738581E-001	5.119571094133704E-001	2.8023805E-004
2	0	0	0	6.573299833944475E+000	-5.5227292E-001	-5.5239683E-001	4.994106414833546E-001	2.7587285E-004
2	0	0	0	6.623399832678842E+000	-5.5728364E-001	-5.5742496E-001	4.864784112597369E-001	2.7117520E-004
2	0	0	0	6.688699831029226E+000	-5.6381220E-001	-5.6387395E-001	4.707300824266003E-001	2.6543243E-004
2	0	0	1	6.753999829379609E+000	-5.7034540E-001	-5.7042235E-001	4.516346857090445E-001	2.5762251E-004
2	0	0	1	6.803999828116503E+000	-5.7534194E-001	-5.7541102E-001	4.384168425330270E-001	2.5226988E-004
2	0	0	0	6.854199826848344E+000	-5.8036405E-001	-5.8044410E-001	4.243180165405397E-001	2.4629288E-004
2	0	0	0	6.904199825585238E+000	-5.8536410E-001	-5.8543479E-001	4.103796895071232E-001	2.4025055E-004
2	0	0	0	6.954199824322131E+000	-5.9036303E-001	-5.9044337E-001	3.954023254099042E-001	2.3346268E-004
2	0	0	1	7.004399823053973E+000	-5.9538507E-001	-5.9546381E-001	3.804656575022188E-001	2.2655353E-004
2	0	0	1	7.054399821790867E+000	-6.0038292E-001	-6.0045159E-001	3.655323783054447E-001	2.1948450E-004
2	0	0	1	7.104399820527760E+000	-6.0538352E-001	-6.0546392E-001	3.501315360464234E-001	2.1199201E-004
2	0	0	0	7.154499819262128E+000	-6.1039519E-001	-6.1046958E-001	3.345314677986675E-001	2.0422129E-004
2	0	0	0	7.204599817996495E+000	-6.1540204E-001	-6.1548412E-001	3.188392468510663E-001	1.9624049E-004
2	0	0	0	7.254599816733389E+000	-6.2040454E-001	-6.2047917E-001	3.029334782175295E-001	1.8796392E-004
2	0	0	1	7.304699815467757E+000	-6.2541437E-001	-6.2549460E-001	2.863941444064451E-001	1.7913799E-004
2	0	0	1	7.354799814202124E+000	-6.3042283E-001	-6.3050514E-001	2.695171240428851E-001	1.6993194E-004
2	0	0	1	7.404799812939018E+000	-6.3542521E-001	-6.3551027E-001	2.525637432571755E-001	1.6050685E-004
2	0	0	0	7.454899811673386E+000	-6.4043283E-001	-6.4049685E-001	2.357571093677748E-001	1.5100169E-004
2	0	0	0	7.504999810407753E+000	-6.4544368E-001	-6.4551324E-001	2.187638596605187E-001	1.4121497E-004
2	0	0	0	7.554999809144647E+000	-6.5044540E-001	-6.5050989E-001	2.011405411407206E-001	1.3084391E-004
2	0	0	0	7.604999807881541E+000	-6.5544230E-001	-6.5549493E-001	1.837540193692799E-001	1.2044983E-004
2	0	0	1	7.655199806613382E+000	-6.6046464E-001	-6.6051131E-001	1.661902803451840E-001	1.0977056E-004
2	0	0	1	7.705199805350276E+000	-6.6546458E-001	-6.6550815E-001	1.481850110115315E-001	9.8618330E-005
2	0	0	1	7.755199804087169E+000	-6.7046261E-001	-6.7051327E-001	1.299510316323843E-001	8.7133893E-005
2	0	0	0	7.805399802819011E+000	-6.7548531E-001	-6.7554367E-001	1.116734798125725E-001	7.5440315E-005
2	0	0	0	7.855399801555905E+000	-6.8048316E-001	-6.8052775E-001	9.336178292239916E-002	6.3535284E-005
2	0	0	0	7.905399800292798E+000	-6.8548375E-001	-6.8552220E-001	7.465436874644238E-002	5.1177227E-005
2	0	0	1	7.955499799027166E+000	-6.9049549E-001	-6.9056135E-001	5.581431136484799E-002	3.8543207E-005
2	0	0	1	8.020599797382602E+000	-6.9700462E-001	-6.9706148E-001	3.112296256478775E-002	2.1694619E-005
2	0	0	1	8.085599795740563E+000	-7.0350212E-001	-7.0353556E-001	6.509276839325256E-003	4.5795077E-006
2	0	0	0	8.135799794472405E+000	-7.0852482E-001	-7.0857573E-001	-1.288969217926961E-002	9.1333231E-006
2	0	0	0	8.185799793209299E+000	-7.1352422E-001	-7.1357912E-001	-3.225151076239965E-002	2.3014005E-005
2	0	0	0	8.235799791946192E+000	-7.1852303E-001	-7.1855718E-001	-5.168305886703117E-002	3.7137233E-005
2	0	0	1	8.285999790678034E+000	-7.2354561E-001	-7.2357947E-001	-7.131868789718943E-002	5.1604737E-005
2	0	0	1	8.335999789414927E+000	-7.2854352E-001	-7.2858012E-001	-9.085049139903800E-002	6.6191860E-005
2	0	0	1	8.400999787772889E+000	-7.3504639E-001	-7.3506808E-001	-1.163086201233861E-001	8.5494758E-005
2	0	0	0	8.466199786125799E+000	-7.4156386E-001	-7.4160200E-001	-1.419980250853958E-001	1.0530602E-004
2	0	0	0	8.516199784862692E+000	-7.4656558E-001	-7.4661297E-001	-1.619809064592794E-001	1.2093705E-004
2	0	0	0	8.566199783599586E+000	-7.5156236E-001	-7.5160313E-001	-1.817741172582332E-001	1.3662199E-004
2	0	0	1	8.616399782331428E+000	-7.5658488E-001	-7.5664222E-001	-2.015328187031802E-001	1.5248824E-004
2	0	0	1	8.666399781068321E+000	-7.6158464E-001	-7.6163757E-001	-2.212628344396506E-001	1.6852209E-004
2	0	0	1	8.716399779805215E+000	-7.6658338E-001	-7.6663327E-001	-2.409513690459573E-001	1.8472134E-004
2	0	0	0	8.766599778537056E+000	-7.7160579E-001	-7.7166671E-001	-2.607482309096851E-001	2.0121073E-004
2	0	0	0	8.816599777273950E+000	-7.7660316E-001	-7.7666247E-001	-2.804011076094728E-001	2.1777702E-004
2	0	0	0	8.866599776010844E+000	-7.8160405E-001	-7.8166944E-001	-3.000197165050396E-001	2.3451625E-004
2	0	0	1	8.916699774745211E+000	-7.8661579E-001	-7.8667498E-001	-3.192085208974227E-001	2.5111335E-004
2	0	0	1	8.966799773479579E+000	-7.9162270E-001	-7.9168367E-001	-3.381048876068284E-001	2.6767212E-004
2	0	0	1	9.016799772216473E+000	-7.9662484E-001	-7.9671037E-001	-3.571665640364805E-001	2.8455831E-004
2	0	0	0	9.066899770950840E+000	-8.0163503E-001	-8.0169386E-001	-3.763415978318969E-001	3.0171074E-004
2	0	0	0	9.116999769685208E+000	-8.0664325E-001	-8.0671018E-001	-3.951885577743983E-001	3.1880263E-004
2	0	0	0	9.166999768422102E+000	-8.1164581E-001	-8.1172287E-001	-4.139617804987932E-001	3.3602223E-004
2	0	0	1	9.217099767156469E+000	-8.1665325E-001	-8.1674147E-001	-4.325528025126513E-001	3.5328380E-004
2	0	0	1	9.267199765890837E+000	-8.2166415E-001	-8.2174295E-001	-4.507708417834309E-001	3.7041775E-004
2	0	0	1	9.317199764627730E+000	-8.2666600E-001	-8.2674611E-001	-4.690763281347778E-001	3.8780703E-004
2	0	0	1	9.367199763364624E+000	-8.3166277E-001	-8.3174700E-001	-4.873360851242774E-001	4.0534034E-004
2	0	0	0	9.417399762096466E+000	-8.3668500E-001	-8.3674932E-001	-5.049517136455135E-001	4.2251800E-004
2	0	0	0	9.467399760833359E+000	-8.4168500E-001	-8.4174347E-001	-5.225026028891612E-001	4.3981316E-004
2	0	0	0	9.517399759570253E+000	-8.4668314E-001	-8.4675300E-001	-5.400484867282156E-001	4.5728768E-004
2	0	0	1	9.567599758302094E+000	-8.5170561E-001	-8.5177737E-001	-5.579388791581561E-001	4.7523971E-004
2	0	0	1	9.617599757038988E+000	-8.5670358E-001	-8.5677463E-001	-5.752989777655699E-001	4.9290154E-004
2	0	0	1	9.667599755775882E+000	-8.6170435E-001	-8.6176509E-001	-5.918755952523167E-001	5.1005773E-004
2	0	0	0	9.717699754510249E+000	-8.6671609E-001	-8.6679882E-001	-6.084213361779334E-001	5.2737887E-004
2	0	0	0	9.767799753244617E+000	-8.7172306E-001	-8.7179989E-001	-6.245484952608246E-001	5.4448133E-004
2	0	0	0	9.817799751981511E+000	-8.7672508E-001	-8.7679082E-001	-6.412546301137834E-001	5.6224619E-004
2	0	0	1	9.867899750715878E+000	-8.8173449E-001	-8.8179487E-001	-6.573027123033377E-001	5.7960616E-004
2	0	0	1	9.917999749450246E+000	-8.8674361E-001	-8.8679820E-001	-6.734745400160929E-001	5.9723604E-004
2	0	0	1	9.967999748187140E+000	-8.9174569E-001	-8.9180475E-001	-6.890837286573266E-001	6.1452814E-004
2	0	0	0	1.001809974692151E+001	-8.9675361E-001	-8.9680308E-001	-7.039564717350357E-001	6.3131034E-004
2	0	0	0	1.006819974565587E+001	-9.0176439E-001	-9.0183371E-001	-7.190073548687081E-001	6.4842508E-004
2	0	0	0	1.011819974439277E+001	-9.0676653E-001	-9.0683711E-001	-7.331793615606799E-001	6.6487427E-004
2	0	0	0	1.016819974312966E+001	-9.1176271E-001	-9.1183454E-001	-7.476160270358925E-001	6.8170211E-004
2	0	0	1	1.021839974186150E+001	-9.1678524E-001	-9.1684616E-001	-7.614263028456492E-001	6.9811079E-004
2	0	0	1	1.026839974059840E+001	-9.2178470E-001	-9.2184150E-001	-7.740017921439541E-001	7.1350695E-004
2	0	0	1	1.031839973933529E+001	-9.2678374E-001	-9.2686266E-001	-7.878629292504726E-001	7.3024072E-004
2	0	0	0	1.036859973806713E+001	-9.3180597E-001	-9.3187582E-001	-8.008503384543157E-001	7.4629305E-004
2	0	0	0	1.041859973680403E+001	-9.3680400E-001	-9.3686712E-001	-8.133894706818152E-001	7.6203787E-004
2	0	0	0	1.046859973554092E+001	-9.4180435E-001	-9.4187033E-001	-8.256177515290819E-001	7.7762484E-004
2	0	0	1	1.051869973427529E+001	-9.4681644E-001	-9.4688523E-001	-8.376984662488129E-001	7.9320429E-004
2	0	0	1	1.056879973300966E+001	-9.5182264E-001	-9.5188469E-001	-8.503913592158341E-001	8.0947450E-004
2	0	0	1	1.061879973174655E+001	-9.5682514E-001	-9.5685619E-001	-8.623937807932727E-001	8.2518684E-004
2	0	0	0	1.066889973048092E+001	-9.6183503E-001	-9.6189761E-001	-8.741170418383817E-001	8.4081112E-004
2	0	0	0	1.071899972921528E+001	-9.6684396E-001	-9.6690685E-001	-8.855542049765619E-001	8.5624843E-004
2	0	0	0	1.076899972795218E+001	-9.7184598E-001	-9.7191101E-001	-8.967530057024842E-001	8.7156415E-004
2	0	0	1	1.081909972668655E+001	-9.7685403E-001	-9.7691160E-001	-9.064922868993559E-001	8.8556285E-004
2	0	0	1	1.086919972542091E+001	-9.8186439E-001	-9.8192871E-001	-9.171692497229564E-001	9.0059481E-004
2	0	0	1	1.091919972415781E+001	-9.8686600E-001	-9.8693275E-001	-9.285769507546018E-001	9.1644301E-004
2	0	0	1	1.096919972289470E+001	-9.9186295E-001	-9.9191046E-001	-9.380523134730083E-001	9.3046390E-004
2	0	0	0	1.101939972162654E+001	-9.9688530E-001	-9.9693584E-001	-9.472358835440279E-001	9.4433338E-004
2	0	0	0	1.104739972091920E+001	-9.9968040E-001	-9.9972701E-001	-9.545247960625041E-001	9.5426419E-004
2	0	0	0	1.105059972083836E+001	-1.0000055E+000	-1.0000432E+000	-9.571480751037598E-001	9.5718936E-004