EC-Lab ASCII FILE
Nb header lines : 55                          

I-V Characterization

Run on channel : 1 (SN 6514)
User : 
CE vs. WE compliance from -10 V to 10 V
Electrode connection : standard
Ewe ctrl range : min = -1.10 V, max = 0.20 V
Safety Limits :
	Do not start on E overload
Acquisition started on : 06/15/2016 18:42:46
Saved on :
	File : B125-G54-UN-G-D1GB-C9 BW 100mVs dark_C01.mpr
	Directory : E:\EC-Lab measurements\B125-G54-UN-G-D1GB\
	Host : 10.0.2.15
Device : VSP (SN 0295)
Address : USB
EC-Lab for windows v11.01 (software)
Internet server v11.00 (firmware)
Command interpretor v11.00 (firmware)
Electrode material : 
Initial state : 
Electrolyte : 
Comments : 
Electrode surface area : 0.001 cm²
Characteristic mass : 0.001 g
Equivalent Weight : 0.000 g/eq.
Density : 0.000 g/cm3
tR (h:m:s)          0:00:0.0000         
dER/dt (mV/h)       0.0                 
dER (mV)            0                   
dtR (s)             0.0000              
dE/dt               100.000             
dE/dt unit          mV/s                
Ei (V)              -1.000              
vs.                 Ref                 
EL (V)              0.100               
vs.                 Ref                 
record              <I>                 
dI                  0.000               
unit dI             µA                  
tI (s)              0.1000              
step percent        100                 
N                   100                 
E range min (V)     -1.100              
E range max (V)     0.200               
I Range             Auto                
I Range min         Unset               
I Range max         Unset               
I Range init        Unset               
Bandwidth           5                   

mode	ox/red	error	control changes	time/s	control/V	Ewe/V	<I>/mA	P/W
2	1	0	1	8.039999796892516E-002	-9.9701774E-001	-9.9709684E-001	-4.839698225259781E-002	4.8256479E-005
2	1	0	0	1.057999973272672E-001	-9.9448204E-001	-9.9449104E-001	-4.788635550668752E-002	4.7622550E-005
2	1	0	0	1.557999960641610E-001	-9.8948532E-001	-9.8952413E-001	-4.777840332257344E-002	4.7277881E-005
2	1	0	0	2.057999948010547E-001	-9.8448354E-001	-9.8451966E-001	-4.802667516485726E-002	4.7283207E-005
2	1	0	1	2.558999935354223E-001	-9.7947323E-001	-9.7950190E-001	-4.828051354171803E-002	4.7290854E-005
2	1	0	1	3.059999922697898E-001	-9.7446513E-001	-9.7449923E-001	-4.842387228215639E-002	4.7189027E-005
2	1	0	1	3.559999910066836E-001	-9.6946311E-001	-9.6948737E-001	-4.844363417102850E-002	4.6965491E-005
2	1	0	0	4.060999897410511E-001	-9.6445435E-001	-9.6448410E-001	-4.835121023992794E-002	4.6633973E-005
2	1	0	0	4.561999884754187E-001	-9.5944411E-001	-9.5944655E-001	-4.811557934183519E-002	4.6164325E-005
2	1	0	0	5.061999872123124E-001	-9.5444167E-001	-9.5445120E-001	-4.778574776689841E-002	4.5609166E-005
2	1	0	1	5.562999859466800E-001	-9.4943595E-001	-9.4948858E-001	-4.736188047488221E-002	4.4969565E-005
2	1	0	1	6.063999846810475E-001	-9.4442326E-001	-9.4446641E-001	-4.682866497195493E-002	4.4228102E-005
2	1	0	1	6.563999834179413E-001	-9.3942344E-001	-9.3946517E-001	-4.619681125328537E-002	4.3400294E-005
2	1	0	1	7.063999821548350E-001	-9.3442500E-001	-9.3447328E-001	-4.548576156058193E-002	4.2505228E-005
2	1	0	0	7.565999808866763E-001	-9.2940253E-001	-9.2945278E-001	-4.466377740848793E-002	4.1512871E-005
2	1	0	0	8.065999796235701E-001	-9.2440414E-001	-9.2443699E-001	-4.379461750457164E-002	4.0485364E-005
2	1	0	0	8.565999783604639E-001	-9.1940427E-001	-9.1942394E-001	-4.286989347659231E-002	3.9415605E-005
2	1	0	1	9.066999770948314E-001	-9.1439182E-001	-9.1443551E-001	-4.188937705020131E-002	3.8305134E-005
2	1	0	1	9.567999758291990E-001	-9.0938574E-001	-9.0942222E-001	-4.086093972266437E-002	3.7159847E-005
2	1	0	1	1.006799974566093E+000	-9.0438330E-001	-9.0443009E-001	-3.978866104512435E-002	3.5986061E-005
2	1	0	0	1.056899973300460E+000	-8.9937329E-001	-8.9941454E-001	-3.871711311131565E-002	3.4822733E-005
2	1	0	0	1.106999972034828E+000	-8.9436448E-001	-8.9438939E-001	-3.760820339766174E-002	3.3636377E-005
2	1	0	0	1.156999970771722E+000	-8.8936234E-001	-8.8938606E-001	-3.651177230521119E-002	3.2473061E-005
2	1	0	1	1.207099969506089E+000	-8.8435465E-001	-8.8439476E-001	-3.541676794384452E-002	3.1322405E-005
2	1	0	1	1.257199968240457E+000	-8.7934387E-001	-8.7937105E-001	-3.431152244654845E-002	3.0172559E-005
2	1	0	1	1.307199966977350E+000	-8.7434238E-001	-8.7440127E-001	-3.324985905439939E-002	2.9073719E-005
2	1	0	1	1.357199965714244E+000	-8.6934537E-001	-8.6940056E-001	-3.220290683881275E-002	2.7997225E-005
2	1	0	0	1.407399964446086E+000	-8.6432290E-001	-8.6438084E-001	-3.117436996037293E-002	2.6946527E-005
2	1	0	0	1.457399963182979E+000	-8.5932308E-001	-8.5936731E-001	-3.018108008998191E-002	2.5936633E-005
2	1	0	0	1.507399961919873E+000	-8.5432488E-001	-8.5436887E-001	-2.922871975654018E-002	2.4972109E-005
2	1	0	1	1.557599960651714E+000	-8.4930193E-001	-8.4935623E-001	-2.831193742034588E-002	2.4046920E-005
2	1	0	1	1.607599959388608E+000	-8.4430480E-001	-8.4434825E-001	-2.742135147883456E-002	2.3153170E-005
2	1	0	1	1.657599958125502E+000	-8.3930373E-001	-8.3932728E-001	-2.654954452134514E-002	2.2283757E-005
2	1	0	0	1.707699956859869E+000	-8.3429205E-001	-8.3434397E-001	-2.571072554896886E-002	2.1451589E-005
2	1	0	0	1.757799955594237E+000	-8.2928479E-001	-8.2935125E-001	-2.488836989910073E-002	2.0641201E-005
2	1	0	0	1.807799954331131E+000	-8.2428300E-001	-8.2435000E-001	-2.410566981812243E-002	1.9871510E-005
2	1	0	1	1.857899953065498E+000	-8.1927323E-001	-8.1931931E-001	-2.336515944346806E-002	1.9143527E-005
2	1	0	1	1.907999951799866E+000	-8.1426448E-001	-8.1431317E-001	-2.263976095395759E-002	1.8435856E-005
2	1	0	1	1.957999950536760E+000	-8.0926222E-001	-8.0930269E-001	-2.194012424747194E-002	1.7756201E-005
2	1	0	0	2.008099949271127E+000	-8.0425471E-001	-8.0428731E-001	-2.125842375202952E-002	1.7097880E-005
2	1	0	0	2.058199948005495E+000	-7.9924345E-001	-7.9928529E-001	-2.062086520775747E-002	1.6481954E-005
2	1	0	0	2.108199946742388E+000	-7.9424208E-001	-7.9428655E-001	-2.000119065301498E-002	1.5886677E-005
2	1	0	0	2.158199945479282E+000	-7.8924501E-001	-7.8928161E-001	-1.938783931723473E-002	1.5302465E-005
2	1	0	1	2.208399944211124E+000	-7.8422248E-001	-7.8425759E-001	-1.879340731928608E-002	1.4738873E-005
2	1	0	1	2.258399942948017E+000	-7.7922368E-001	-7.7925718E-001	-1.821417412879411E-002	1.4193526E-005
2	1	0	1	2.308399941684911E+000	-7.7422422E-001	-7.7424860E-001	-1.766013969827085E-002	1.3673339E-005
2	1	0	0	2.358599940416752E+000	-7.6920170E-001	-7.6923847E-001	-1.712584103525286E-002	1.3173856E-005
2	1	0	0	2.408599939153646E+000	-7.6420462E-001	-7.6423764E-001	-1.660394279899173E-002	1.2689358E-005
2	1	0	0	2.458599937890540E+000	-7.5920343E-001	-7.5923932E-001	-1.608505268081997E-002	1.2212405E-005
2	1	0	1	2.508699936624907E+000	-7.5419205E-001	-7.5421995E-001	-1.558777105900191E-002	1.1756608E-005
2	1	0	1	2.558799935359275E+000	-7.4918509E-001	-7.4921650E-001	-1.509584192425302E-002	1.1310054E-005
2	1	0	1	2.608799934096169E+000	-7.4418253E-001	-7.4420094E-001	-1.463457930218778E-002	1.0891068E-005
2	1	0	0	2.658899932830536E+000	-7.3917359E-001	-7.3918635E-001	-1.418794014575020E-002	1.0487532E-005
2	1	0	0	2.708999931564904E+000	-7.3416376E-001	-7.3417801E-001	-1.375156045692288E-002	1.0096093E-005
2	1	0	0	2.758999930301798E+000	-7.2916180E-001	-7.2918165E-001	-1.333293858883169E-002	9.7221346E-006
2	1	0	1	2.809099929036165E+000	-7.2415465E-001	-7.2416687E-001	-1.291356463860005E-002	9.3515755E-006
2	1	0	1	2.859199927770533E+000	-7.1914309E-001	-7.1914721E-001	-1.250965126863798E-002	8.9962805E-006
2	1	0	1	2.909199926507426E+000	-7.1414250E-001	-7.1417177E-001	-1.212743172295741E-002	8.6610689E-006
2	1	0	1	2.959199925244320E+000	-7.0914459E-001	-7.0918262E-001	-1.174339316218301E-002	8.3282102E-006
2	1	0	0	3.009399923976162E+000	-7.0412219E-001	-7.0415336E-001	-1.136999182375363E-002	8.0062182E-006
2	1	0	0	3.059399922713055E+000	-6.9912356E-001	-6.9915611E-001	-1.100684884170611E-002	7.6955057E-006
2	1	0	0	3.109399921449949E+000	-6.9412351E-001	-6.9414651E-001	-1.065599266568256E-002	7.3968204E-006
2	1	0	1	3.159599920181790E+000	-6.8910110E-001	-6.8913490E-001	-1.030556901394203E-002	7.1019272E-006
2	1	0	1	3.209599918918684E+000	-6.8410498E-001	-6.8411344E-001	-9.974750732165017E-003	6.8238610E-006
2	1	0	1	3.259599917655578E+000	-6.7910290E-001	-6.7913789E-001	-9.651179430765138E-003	6.5544814E-006
2	1	0	0	3.309699916389945E+000	-6.7409253E-001	-6.7413759E-001	-9.337403749531098E-003	6.2946947E-006
2	1	0	0	3.359799915124313E+000	-6.6908419E-001	-6.6910708E-001	-9.031287144907862E-003	6.0428983E-006
2	1	0	0	3.409799913861207E+000	-6.6408187E-001	-6.6410363E-001	-8.745186713697117E-003	5.8077103E-006
2	1	0	1	3.459899912595574E+000	-6.5907335E-001	-6.5908778E-001	-8.469811800986382E-003	5.5823493E-006
2	1	0	1	3.509999911329942E+000	-6.5406352E-001	-6.5408981E-001	-8.180658107984143E-003	5.3508852E-006
2	1	0	1	3.559999910066836E+000	-6.4906120E-001	-6.4909631E-001	-7.914153975383052E-003	5.1370480E-006
2	1	0	0	3.610099908801203E+000	-6.4405495E-001	-6.4408821E-001	-7.662604674485658E-003	4.9353935E-006
2	1	0	0	3.660199907535571E+000	-6.3904268E-001	-6.3908297E-001	-7.398588904159578E-003	4.7283120E-006
2	1	0	0	3.710199906272464E+000	-6.3404244E-001	-6.3410187E-001	-7.141540647903420E-003	4.5284642E-006
2	1	0	0	3.760199905009358E+000	-6.2904376E-001	-6.2910789E-001	-6.907430924828453E-003	4.3455193E-006
2	1	0	1	3.810399903741200E+000	-6.2402147E-001	-6.2408984E-001	-6.664345200347838E-003	4.1591502E-006
2	1	0	1	3.860399902478093E+000	-6.1902386E-001	-6.1907911E-001	-6.435769441212241E-003	3.9842503E-006
2	1	0	1	3.910399901214987E+000	-6.1402321E-001	-6.1408830E-001	-6.214777896529466E-003	3.8164226E-006
2	1	0	0	3.960499899949355E+000	-6.0901147E-001	-6.0906661E-001	-6.002643382197359E-003	3.6560095E-006
2	1	0	0	4.010599898683722E+000	-6.0400480E-001	-6.0406393E-001	-5.795369095538488E-003	3.5007733E-006
2	1	0	0	4.060599897420616E+000	-5.9900218E-001	-5.9905642E-001	-5.590380107057875E-003	3.3489532E-006
2	1	0	1	4.110699896154983E+000	-5.9399223E-001	-5.9405684E-001	-5.394702113325406E-003	3.2047597E-006
2	1	0	1	4.160799894889351E+000	-5.8898419E-001	-5.8903730E-001	-5.200275023750894E-003	3.0631559E-006
2	1	0	1	4.210799893626245E+000	-5.8398151E-001	-5.8404177E-001	-5.020043915188711E-003	2.9319153E-006
2	1	0	0	4.260899892360612E+000	-5.7897395E-001	-5.7901776E-001	-4.840182604785562E-003	2.8025518E-006
2	1	0	0	4.326199890710996E+000	-5.7244402E-001	-5.7248640E-001	-4.614544699693288E-003	2.6417640E-006
2	1	0	1	4.391599889058853E+000	-5.6590283E-001	-5.6594861E-001	-4.401505436772089E-003	2.4910260E-006
2	1	0	1	4.441599887795746E+000	-5.6090105E-001	-5.6096143E-001	-4.238558875833218E-003	2.3776681E-006
2	1	0	1	4.491599886532640E+000	-5.5590475E-001	-5.5597228E-001	-4.077319160795789E-003	2.2668764E-006
2	1	0	0	4.541799885264481E+000	-5.5088228E-001	-5.5094618E-001	-3.918701305149542E-003	2.1589935E-006
2	1	0	0	4.591799884001375E+000	-5.4588282E-001	-5.4592776E-001	-3.772127599543720E-003	2.0593093E-006
2	1	0	0	4.641799882738269E+000	-5.4088384E-001	-5.4092139E-001	-3.636886874368556E-003	1.9672700E-006
2	1	0	1	4.691999881470110E+000	-5.3586125E-001	-5.3591222E-001	-3.507482304299321E-003	1.8797026E-006
2	1	0	1	4.741999880207004E+000	-5.3086358E-001	-5.3091544E-001	-3.383420918008324E-003	1.7963104E-006
2	1	0	1	4.791999878943898E+000	-5.2586305E-001	-5.2590847E-001	-3.256645386572235E-003	1.7126974E-006
2	1	0	0	4.842099877678265E+000	-5.2085119E-001	-5.2089649E-001	-3.126768031577958E-003	1.6287225E-006
2	1	0	0	4.892199876412633E+000	-5.1584470E-001	-5.1590478E-001	-3.003214598444340E-003	1.5493728E-006
2	1	0	0	4.942199875149527E+000	-5.1084226E-001	-5.1088673E-001	-2.884916006862919E-003	1.4738653E-006
2	1	0	1	4.992299873883894E+000	-5.0583267E-001	-5.0587720E-001	-2.773590831884103E-003	1.4030963E-006
2	1	0	1	5.042399872618262E+000	-5.0082332E-001	-5.0087047E-001	-2.657973423513855E-003	1.3313004E-006
2	1	0	1	5.092399871355155E+000	-4.9582112E-001	-4.9586591E-001	-2.551886338586828E-003	1.2653934E-006
2	1	0	0	5.142499870089523E+000	-4.9081397E-001	-4.9085960E-001	-2.448429983585451E-003	1.2018354E-006
2	1	0	0	5.192599868823891E+000	-4.8580274E-001	-4.8584428E-001	-2.350460482435505E-003	1.1419578E-006
2	1	0	0	5.242599867560784E+000	-4.8080173E-001	-4.8084298E-001	-2.256243974112036E-003	1.0848991E-006
2	1	0	0	5.292599866297678E+000	-4.7580439E-001	-4.7584388E-001	-2.166999901888726E-003	1.0311536E-006
2	1	0	1	5.342799865029519E+000	-4.7078180E-001	-4.7079918E-001	-2.071676128011395E-003	9.7534337E-007
2	1	0	1	5.392799863766413E+000	-4.6578261E-001	-4.6579894E-001	-1.988226090822262E-003	9.2611361E-007
2	1	0	1	5.442799862503307E+000	-4.6078363E-001	-4.6082374E-001	-1.905588140882646E-003	8.7814027E-007
2	1	0	0	5.492999861235148E+000	-4.5576087E-001	-4.5579323E-001	-1.823217507537852E-003	8.3101020E-007
2	1	0	0	5.542999859972042E+000	-4.5076436E-001	-4.5077950E-001	-1.744290062961968E-003	7.8629017E-007
2	1	0	0	5.592999858708936E+000	-4.4576275E-001	-4.4579160E-001	-1.665336475178476E-003	7.4239301E-007
2	1	0	1	5.643099857443303E+000	-4.4075149E-001	-4.4077140E-001	-1.593683474797538E-003	7.0245011E-007
2	1	0	1	5.693199856177671E+000	-4.3574390E-001	-4.3575317E-001	-1.522324892100108E-003	6.6335787E-007
2	1	0	1	5.743199854914565E+000	-4.3074182E-001	-4.3075639E-001	-1.449430742991555E-003	6.2435157E-007
2	1	0	0	5.793299853648932E+000	-4.2573270E-001	-4.2575428E-001	-1.382126491855347E-003	5.8844626E-007
2	1	0	0	5.843399852383300E+000	-4.2072335E-001	-4.2074084E-001	-1.318957492088949E-003	5.5493928E-007
2	1	0	0	5.893399851120193E+000	-4.1572091E-001	-4.1574022E-001	-1.256735040509046E-003	5.2247532E-007
2	1	0	1	5.943499849854561E+000	-4.1071415E-001	-4.1073459E-001	-1.196938010805702E-003	4.9162384E-007
2	1	0	1	5.993599848588929E+000	-4.0570229E-001	-4.0572128E-001	-1.139055370646590E-003	4.6213901E-007
2	1	0	1	6.043599847325822E+000	-4.0070161E-001	-4.0073389E-001	-1.082280154373876E-003	4.3370633E-007
2	1	0	1	6.093599846062716E+000	-3.9570382E-001	-3.9573362E-001	-1.029133467353657E-003	4.0726272E-007
2	1	0	0	6.143799844794557E+000	-3.9068145E-001	-3.9069116E-001	-9.783101226457807E-004	3.8221711E-007
2	1	0	0	6.193799843531451E+000	-3.8568309E-001	-3.8570198E-001	-9.253418583350559E-004	3.5690618E-007
2	1	0	0	6.243799842268345E+000	-3.8068295E-001	-3.8069969E-001	-8.803414954294889E-004	3.3514573E-007
2	1	0	1	6.293999841000186E+000	-3.7566078E-001	-3.7568802E-001	-8.331039075180147E-004	3.1298717E-007
2	1	0	1	6.343999839737080E+000	-3.7066412E-001	-3.7069055E-001	-7.881600220626759E-004	2.9216346E-007
2	1	0	1	6.393999838473974E+000	-3.6566228E-001	-3.6570629E-001	-7.430918717292135E-004	2.7175338E-007
2	1	0	0	6.444099837208341E+000	-3.6065152E-001	-3.6067954E-001	-6.999721234376248E-004	2.5246561E-007
2	1	0	0	6.494199835942709E+000	-3.5564387E-001	-3.5567430E-001	-6.562945527970113E-004	2.3342710E-007
2	1	0	0	6.544199834679603E+000	-3.5064137E-001	-3.5065159E-001	-6.157257004633127E-004	2.1590520E-007
2	1	0	1	6.594299833413970E+000	-3.4563291E-001	-3.4565872E-001	-5.777207538656374E-004	1.9969421E-007
2	1	0	1	6.644399832148338E+000	-3.4062278E-001	-3.4065029E-001	-5.416236886192395E-004	1.8450427E-007
2	1	0	1	6.694399830885232E+000	-3.3562058E-001	-3.3562094E-001	-5.049619375165381E-004	1.6947580E-007
2	1	0	0	6.744499829619599E+000	-3.3061412E-001	-3.3061644E-001	-4.711164662892942E-004	1.5575885E-007
2	1	0	0	6.794599828353967E+000	-3.2560199E-001	-3.2562563E-001	-4.373657631746028E-004	1.4241751E-007
2	1	0	0	6.844599827090860E+000	-3.2060185E-001	-3.2063460E-001	-4.071221782439606E-004	1.3053746E-007
2	1	0	0	6.894599825827754E+000	-3.1560329E-001	-3.1562942E-001	-3.774581040430682E-004	1.1913689E-007
2	1	0	1	6.944799824559595E+000	-3.1058103E-001	-3.1061462E-001	-3.451475806837837E-004	1.0720788E-007
2	1	0	1	6.994799823296489E+000	-3.0558306E-001	-3.0562064E-001	-3.159469677793819E-004	9.6559916E-008
2	1	0	1	7.044799822033383E+000	-3.0058250E-001	-3.0061442E-001	-2.870540163507646E-004	8.6292573E-008
2	1	0	0	7.094899820767751E+000	-2.9557034E-001	-2.9559174E-001	-2.604007867472230E-004	7.6972320E-008
2	1	0	0	7.144999819502118E+000	-2.9056421E-001	-2.9058716E-001	-2.351657017684841E-004	6.8336135E-008
2	1	0	0	7.194999818239012E+000	-2.8556171E-001	-2.8558919E-001	-2.100175464168614E-004	5.9978738E-008
2	1	0	1	7.245099816973379E+000	-2.8055194E-001	-2.8057963E-001	-1.842618853251966E-004	5.1700130E-008
2	1	0	1	7.295199815707747E+000	-2.7554336E-001	-2.7555320E-001	-1.607489774095023E-004	4.4294893E-008
2	1	0	1	7.345199814444641E+000	-2.7054104E-001	-2.7056447E-001	-1.361543873268584E-004	3.6838539E-008
2	1	0	0	7.395299813179008E+000	-2.6553300E-001	-2.6556012E-001	-1.158446511373861E-004	3.0763719E-008
2	1	0	0	7.445399811913376E+000	-2.6052257E-001	-2.6055902E-001	-9.407904633833048E-005	2.4513144E-008
2	1	0	0	7.495399810650270E+000	-2.5552070E-001	-2.5553858E-001	-7.440744364503463E-005	1.9013973E-008
2	1	0	0	7.545399809387163E+000	-2.5052390E-001	-2.5054318E-001	-5.470507906468909E-005	1.3705984E-008
2	1	0	1	7.595599808119005E+000	-2.4550155E-001	-2.4554701E-001	-3.659940933067541E-005	8.9868752E-009
2	1	0	1	7.645599806855898E+000	-2.4050207E-001	-2.4055506E-001	-1.695210034364662E-005	4.0779136E-009
2	1	0	1	7.695599805592792E+000	-2.3550311E-001	-2.3554094E-001	1.891209739299792E-006	4.4545731E-010
2	1	0	0	7.745799804324633E+000	-2.3048081E-001	-2.3052631E-001	1.980420250832467E-005	4.5653898E-009
2	1	0	0	7.795799803061527E+000	-2.2548336E-001	-2.2553679E-001	3.532713998562231E-005	7.9675697E-009
2	1	0	0	7.845799801798421E+000	-2.2048216E-001	-2.2053310E-001	5.017329374037970E-005	1.1064873E-008
2	1	0	1	7.895899800532789E+000	-2.1547091E-001	-2.1550699E-001	6.681603516062241E-005	1.4399323E-008
2	1	0	1	7.945999799267156E+000	-2.1046381E-001	-2.1050584E-001	8.335004415035822E-005	1.7545672E-008
2	1	0	1	7.995999798004050E+000	-2.0546134E-001	-2.0551389E-001	9.811081310393986E-005	2.0163135E-008
2	1	0	0	8.046099796738417E+000	-2.0045190E-001	-2.0049916E-001	1.133115832365156E-004	2.2718877E-008
2	1	0	0	8.096199795472785E+000	-1.9544302E-001	-1.9547409E-001	1.247266599804849E-004	2.4380830E-008
2	1	0	0	8.146199794209679E+000	-1.9044052E-001	-1.9049467E-001	1.374488891261881E-004	2.6183281E-008
2	1	0	1	8.196299792944046E+000	-1.8543339E-001	-1.8547124E-001	1.527934473079398E-004	2.8338789E-008
2	1	0	1	8.246399791678414E+000	-1.8042208E-001	-1.8045987E-001	1.652915770536971E-004	2.9828495E-008
2	1	0	1	8.296399790415308E+000	-1.7542075E-001	-1.7546031E-001	1.768924954761207E-004	3.1037612E-008
2	1	0	1	8.346399789152201E+000	-1.7042339E-001	-1.7045009E-001	1.875039601100803E-004	3.1960067E-008
2	1	0	0	8.396599787884043E+000	-1.6540125E-001	-1.6542535E-001	1.995768766267338E-004	3.3015073E-008
2	1	0	0	8.446599786620936E+000	-1.6040209E-001	-1.6042154E-001	2.092579512430875E-004	3.3569481E-008
2	1	0	0	8.496599785357830E+000	-1.5540269E-001	-1.5541199E-001	2.193505800916804E-004	3.4089709E-008
2	1	0	1	8.546799784089671E+000	-1.5038037E-001	-1.5040512E-001	2.302409921848781E-004	3.4629426E-008
2	1	0	1	8.596799782826565E+000	-1.4538343E-001	-1.4540882E-001	2.396872676820533E-004	3.4852643E-008
2	1	0	1	8.646799781563459E+000	-1.4038178E-001	-1.4037903E-001	2.491961037869909E-004	3.4981905E-008
2	1	0	0	8.696899780297827E+000	-1.3537093E-001	-1.3537978E-001	2.578593526015548E-004	3.4908940E-008
2	1	0	0	8.746999779032194E+000	-1.3036354E-001	-1.3036440E-001	2.669317466974953E-004	3.4798397E-008
2	1	0	0	8.796999777769088E+000	-1.2536101E-001	-1.2535727E-001	2.756343515060372E-004	3.4552770E-008
2	1	0	1	8.847099776503455E+000	-1.2035228E-001	-1.2035615E-001	2.839735741806014E-004	3.4177965E-008
2	1	0	1	8.897199775237823E+000	-1.1534265E-001	-1.1533344E-001	2.915581005841321E-004	3.3626399E-008
2	1	0	1	8.947199773974717E+000	-1.1034004E-001	-1.1035853E-001	2.989905256072273E-004	3.2996155E-008
2	1	0	0	8.997299772709084E+000	-1.0533348E-001	-1.0534665E-001	3.070146167823938E-004	3.2342960E-008
2	1	0	0	9.047399771443452E+000	-1.0032180E-001	-1.0031724E-001	3.140139774748735E-004	3.1501017E-008
2	1	0	0	9.097399770180346E+000	-9.5320947E-002	-9.5315300E-002	3.210682913240594E-004	3.0602720E-008
2	1	0	0	9.147399768917239E+000	-9.0323254E-002	-9.0340056E-002	3.287189153438974E-004	2.9696485E-008
2	1	0	1	9.197599767649081E+000	-8.5300848E-002	-8.5314423E-002	3.345949960992523E-004	2.8545779E-008
2	1	0	1	9.247599766385974E+000	-8.0302209E-002	-8.0308601E-002	3.421613868964243E-004	2.7478503E-008
2	1	0	1	9.297599765122868E+000	-7.5302288E-002	-7.5305142E-002	3.489192296664296E-004	2.6275412E-008
2	1	0	0	9.347799763854709E+000	-7.0279874E-002	-7.0290305E-002	3.549703196954459E-004	2.4950971E-008
2	1	0	0	9.397799762591603E+000	-6.5283507E-002	-6.5290384E-002	3.613641218190291E-004	2.3593602E-008
2	1	0	0	9.447799761328497E+000	-6.0281552E-002	-6.0292277E-002	3.678405383936668E-004	2.2177943E-008
2	1	0	1	9.497899760062865E+000	-5.5271056E-002	-5.5271961E-002	3.739749974684616E-004	2.0670331E-008
2	1	0	1	9.547999758797232E+000	-5.0262991E-002	-5.0279677E-002	3.801131175165577E-004	1.9111965E-008
2	1	0	1	9.597999757534126E+000	-4.5260604E-002	-4.5268565E-002	3.866487774809228E-004	1.7503035E-008
2	1	0	0	9.648099756268493E+000	-4.0252347E-002	-4.0261343E-002	3.924482035776635E-004	1.5800492E-008
2	1	0	0	9.698199755002861E+000	-3.5242274E-002	-3.5246506E-002	3.981306300952234E-004	1.4032714E-008
2	1	0	0	9.748199753739755E+000	-3.0239863E-002	-3.0243950E-002	4.036614010571437E-004	1.2208315E-008
2	1	0	1	9.798299752474122E+000	-2.5233636E-002	-2.5244744E-002	4.098962947003204E-004	1.0347727E-008
2	1	0	1	9.848399751208490E+000	-2.0221334E-002	-2.0220723E-002	4.156803442914663E-004	8.4053573E-009
2	1	0	1	9.898399749945384E+000	-1.5221150E-002	-1.5218826E-002	4.215696713704793E-004	6.4157955E-009
2	1	0	1	9.948399748682277E+000	-1.0222780E-002	-1.0259308E-002	4.274722742802547E-004	4.3855697E-009
2	1	0	0	9.998599747414119E+000	-5.2003912E-003	-5.2234395E-003	4.335085383549718E-004	2.2644056E-009
2	1	0	0	1.004859974615101E+001	-2.0242837E-004	-2.2222749E-004	4.393721045382552E-004	9.7640562E-011
2	1	0	0	1.009859974488791E+001	4.7979411E-003	4.7865547E-003	4.455998317059373E-004	2.1328881E-009
2	1	0	1	1.014869974362227E+001	9.8100137E-003	9.7855190E-003	4.518800209554136E-004	4.4218806E-009
2	1	0	1	1.019879974235664E+001	1.4816433E-002	1.4803689E-002	4.580777248077697E-004	6.7812400E-009
2	1	0	1	1.024879974109354E+001	1.9818822E-002	1.9802380E-002	4.641426882072289E-004	9.1911296E-009
2	1	0	0	1.029889973982790E+001	2.4828671E-002	2.4818717E-002	4.710494390152489E-004	1.1690843E-008
2	1	0	0	1.034899973856227E+001	2.9837301E-002	2.9823160E-002	4.778793419868768E-004	1.4251872E-008
2	1	0	0	1.039899973729916E+001	3.4839470E-002	3.4825508E-002	4.845934007149909E-004	1.6876211E-008
2	1	0	1	1.044909973603353E+001	3.9847329E-002	3.9840527E-002	4.911941480186983E-004	1.9569434E-008
2	1	0	1	1.049919973476790E+001	4.4858001E-002	4.4834703E-002	4.988790521691811E-004	2.2367095E-008
2	1	0	1	1.054919973350479E+001	4.9859758E-002	4.9845830E-002	5.048773434121329E-004	2.5166029E-008
2	1	0	1	1.059919973224169E+001	5.4856502E-002	5.4843832E-002	5.122918043598572E-004	2.8096046E-008
2	1	0	0	1.064939973097353E+001	5.9878882E-002	5.9856638E-002	5.197394170601138E-004	3.1109856E-008
2	1	0	0	1.069939972971042E+001	6.4878404E-002	6.4884648E-002	5.279359135118792E-004	3.4254935E-008
2	1	0	0	1.074939972844732E+001	6.9877192E-002	6.9866851E-002	5.366825400497065E-004	3.7496321E-008
2	1	0	1	1.079959972717916E+001	7.4899718E-002	7.4888602E-002	5.449415607642095E-004	4.0809912E-008
2	1	0	1	1.084959972591605E+001	7.9897039E-002	7.9898007E-002	5.545276129787355E-004	4.4305651E-008
2	1	0	1	1.089959972465294E+001	8.4898032E-002	8.4884822E-002	5.649585391299516E-004	4.7956405E-008
2	1	0	0	1.094969972338731E+001	8.9909412E-002	8.9892738E-002	5.735505820160847E-004	5.1558033E-008
2	1	0	0	1.099979972212168E+001	9.4916508E-002	9.4905153E-002	5.821093081758433E-004	5.5245174E-008
2	1	0	0	1.103749972116930E+001	9.8690502E-002	9.8687090E-002	5.879056322974094E-004	5.8018696E-008
2	1	0	0	1.105059972083836E+001	9.9997252E-002	1.0003239E-001	5.984944291412830E-004	5.9868825E-008