EC-Lab ASCII FILE
Nb header lines : 55                          

I-V Characterization

Run on channel : 1 (SN 6514)
User : 
CE vs. WE compliance from -10 V to 10 V
Electrode connection : standard
Ewe ctrl range : min = -1.10 V, max = 0.20 V
Safety Limits :
	Do not start on E overload
Acquisition started on : 06/15/2016 18:02:41
Saved on :
	File : B125-G54-UN-G-D1GB-C6 FW 10mVs dark_C01.mpr
	Directory : E:\EC-Lab measurements\B125-G54-UN-G-D1GB\
	Host : 10.0.2.15
Device : VSP (SN 0295)
Address : USB
EC-Lab for windows v11.01 (software)
Internet server v11.00 (firmware)
Command interpretor v11.00 (firmware)
Electrode material : 
Initial state : 
Electrolyte : 
Comments : 
Electrode surface area : 0.001 cm²
Characteristic mass : 0.001 g
Equivalent Weight : 0.000 g/eq.
Density : 0.000 g/cm3
tR (h:m:s)          0:00:0.0000         
dER/dt (mV/h)       0.0                 
dER (mV)            0                   
dtR (s)             0.0000              
dE/dt               10.000              
dE/dt unit          mV/s                
Ei (V)              0.100               
vs.                 Ref                 
EL (V)              -1.000              
vs.                 Ref                 
record              <I>                 
dI                  0.000               
unit dI             µA                  
tI (s)              0.1000              
step percent        100                 
N                   100                 
E range min (V)     -1.100              
E range max (V)     0.200               
I Range             Auto                
I Range min         Unset               
I Range max         Unset               
I Range init        Unset               
Bandwidth           5                   

mode	ox/red	error	control changes	time/s	control/V	Ewe/V	<I>/mA	P/W
2	0	0	0	8.499999785271939E-002	9.9685900E-002	9.9696122E-002	3.201814740896217E-003	3.1920851E-007
2	0	0	1	3.552999910243670E-001	9.6982040E-002	9.6981108E-002	2.459838825956767E-003	2.3855790E-007
2	0	0	1	8.733999779360602E-001	9.1801010E-002	9.1779806E-002	2.025059819008725E-003	1.8585959E-007
2	0	0	0	1.373999965289840E+000	8.6795025E-002	8.6791053E-002	1.915989986691572E-003	1.6629079E-007
2	0	0	1	1.874599952643621E+000	8.1789047E-002	8.1781507E-002	1.798626064161420E-003	1.4709435E-007
2	0	0	0	2.375299939994875E+000	7.6782048E-002	7.6780155E-002	1.684718610628761E-003	1.2935296E-007
2	0	0	0	2.875999927346129E+000	7.1775101E-002	7.1764395E-002	1.575209497851421E-003	1.1304395E-007
2	0	0	1	3.376599914699909E+000	6.6769101E-002	6.6747829E-002	1.455993386165133E-003	9.7184397E-008
2	0	0	0	3.877199902053690E+000	6.1763115E-002	6.1759181E-002	1.321492183823228E-003	8.1614274E-008
2	0	0	1	4.377799889407470E+000	5.6757133E-002	5.6740601E-002	1.234716853714564E-003	7.0058576E-008
2	0	0	0	4.878399876761250E+000	5.1751111E-002	5.1741090E-002	1.128366073146472E-003	5.8382891E-008
2	0	0	1	5.378999864115031E+000	4.6745118E-002	4.6723701E-002	1.024750330511023E-003	4.7880128E-008
2	0	0	0	5.879699851466285E+000	4.1738108E-002	4.1725200E-002	9.230306132836409E-004	3.8513637E-008
2	0	0	0	6.380399838817539E+000	3.6731184E-002	3.6708467E-002	8.069975715748259E-004	2.9623644E-008
2	0	0	1	6.880999826171319E+000	3.1725176E-002	3.1704925E-002	7.020815331580848E-004	2.2259442E-008
2	0	0	0	7.381599813525099E+000	2.6719196E-002	2.6699999E-002	6.041755862579816E-004	1.6131487E-008
2	0	0	1	7.882199800878880E+000	2.1713199E-002	2.1713397E-002	4.892452288224501E-004	1.0623175E-008
2	0	0	0	8.382799788232660E+000	1.6707184E-002	1.6687656E-002	3.710073423811551E-004	6.1912426E-009
2	0	0	1	8.883399775586440E+000	1.1701208E-002	1.1683633E-002	2.509588168505559E-004	2.9321106E-009
2	0	0	0	9.383999762940221E+000	6.6951923E-003	6.6828830E-003	1.370138436005428E-004	9.1564750E-010
2	0	0	1	9.884699750291475E+000	1.6880251E-003	1.6721198E-003	1.995060425212682E-005	3.3359801E-011
2	0	0	1	1.038539973764273E+001	-3.3187484E-003	-3.3545459E-003	-9.820283876915952E-005	3.2942593E-010
2	0	0	0	1.088599972499651E+001	-8.3247451E-003	-8.3581414E-003	-2.123954061849659E-004	1.7752309E-009
2	0	0	1	1.138659971235029E+001	-1.3330783E-002	-1.3354688E-002	-3.354099188496508E-004	4.4792947E-009
2	0	0	0	1.188719969970407E+001	-1.8336821E-002	-1.8341666E-002	-4.580157161895560E-004	8.4007716E-009
2	0	0	1	1.238779968705785E+001	-2.3342818E-002	-2.3352135E-002	-5.807847395192635E-004	1.3562564E-008
2	0	0	0	1.288839967441163E+001	-2.8348831E-002	-2.8366538E-002	-7.052809560960799E-004	2.0006379E-008
2	0	0	1	1.338909966176288E+001	-3.3355858E-002	-3.3368666E-002	-8.341048953930211E-004	2.7832968E-008
2	0	0	1	1.388979964911414E+001	-3.8362786E-002	-3.8374208E-002	-9.493459796886955E-004	3.6430400E-008
2	0	0	0	1.439039963646792E+001	-4.3368824E-002	-4.3395288E-002	-1.085246773600669E-003	4.7094595E-008
2	0	0	1	1.489099962382170E+001	-4.8374828E-002	-4.8386492E-002	-1.208731129431439E-003	5.8486258E-008
2	0	0	0	1.539159961117548E+001	-5.3380840E-002	-5.3387575E-002	-1.332612301636830E-003	7.1144939E-008
2	0	0	1	1.589219959852926E+001	-5.8386877E-002	-5.8399636E-002	-1.480449085621484E-003	8.6457689E-008
2	0	0	0	1.639279958588304E+001	-6.3392892E-002	-6.3422084E-002	-1.603040930956420E-003	1.0166820E-007
2	0	0	1	1.689339957323682E+001	-6.8398900E-002	-6.8410940E-002	-1.713762949002620E-003	1.1724013E-007
2	0	0	1	1.739419956058555E+001	-7.3406868E-002	-7.3411286E-002	-1.830554578959040E-003	1.3438337E-007
2	0	0	0	1.789479954793933E+001	-7.8412890E-002	-7.8420907E-002	-1.997016112826665E-003	1.5660781E-007
2	0	0	1	1.839539953529311E+001	-8.3418883E-002	-8.3442591E-002	-2.159707760039844E-003	1.8021161E-007
2	0	0	0	1.889599952264689E+001	-8.8424928E-002	-8.8442825E-002	-2.314229675312088E-003	2.0467701E-007
2	0	0	1	1.939659951000067E+001	-9.3430959E-002	-9.3447216E-002	-2.458360331486560E-003	2.2972692E-007
2	0	0	0	1.989719949735445E+001	-9.8436967E-002	-9.8442808E-002	-2.604854874716220E-003	2.5642922E-007
2	0	0	1	2.039779948470823E+001	-1.0344296E-001	-1.0344627E-001	-2.723428268994070E-003	2.8172849E-007
2	0	0	0	2.089849947205948E+001	-1.0844998E-001	-1.0846774E-001	-2.843110769929984E-003	3.0838578E-007
2	0	0	0	2.139919945941074E+001	-1.1345691E-001	-1.1346272E-001	-3.008836521519134E-003	3.4139077E-007
2	0	0	1	2.189979944676452E+001	-1.1846296E-001	-1.1846355E-001	-3.171772331532041E-003	3.7573940E-007
2	0	0	0	2.240039943411830E+001	-1.2346898E-001	-1.2346914E-001	-3.272504204182847E-003	4.0405328E-007
2	0	0	1	2.290099942147208E+001	-1.2847503E-001	-1.2848635E-001	-3.407204731833570E-003	4.3777931E-007
2	0	0	0	2.340159940882586E+001	-1.3348101E-001	-1.3349015E-001	-3.509012346517876E-003	4.6841856E-007
2	0	0	1	2.390219939617964E+001	-1.3848704E-001	-1.3850476E-001	-3.693303948127682E-003	5.1154018E-007
2	0	0	0	2.440289938353089E+001	-1.4349405E-001	-1.4351758E-001	-3.851793938589475E-003	5.5280015E-007
2	0	0	0	2.490359937088215E+001	-1.4850102E-001	-1.4853343E-001	-3.937622095047401E-003	5.8486853E-007
2	0	0	1	2.540419935823593E+001	-1.5350704E-001	-1.5352327E-001	-4.100932696051419E-003	6.2958856E-007
2	0	0	0	2.590479934558971E+001	-1.5851305E-001	-1.5854821E-001	-4.224581665580708E-003	6.6979982E-007
2	0	0	1	2.640539933294349E+001	-1.6351910E-001	-1.6355142E-001	-4.375989119414142E-003	7.1569923E-007
2	0	0	0	2.690599932029727E+001	-1.6852513E-001	-1.6855459E-001	-4.578722561419397E-003	7.7176469E-007
2	0	0	1	2.740659930765105E+001	-1.7353113E-001	-1.7357174E-001	-4.797895109073691E-003	8.3277899E-007
2	0	0	0	2.790719929500483E+001	-1.7853715E-001	-1.7859030E-001	-4.986886809351929E-003	8.9060961E-007
2	0	0	1	2.840789928235608E+001	-1.8354411E-001	-1.8358973E-001	-5.158718829083045E-003	9.4708776E-007
2	0	0	1	2.890859926970734E+001	-1.8855114E-001	-1.8857656E-001	-5.366253549969127E-003	1.0119496E-006
2	0	0	0	2.940919925706112E+001	-1.9355708E-001	-1.9360341E-001	-5.533690469387370E-003	1.0713413E-006
2	0	0	1	2.990979924441490E+001	-1.9856314E-001	-1.9860052E-001	-5.659844291211965E-003	1.1240480E-006
2	0	0	0	3.041039923176868E+001	-2.0356919E-001	-2.0362282E-001	-5.818350414734177E-003	1.1847490E-006
2	0	0	1	3.091099921912246E+001	-2.0857522E-001	-2.0863608E-001	-6.027852731407858E-003	1.2576276E-006
2	0	0	0	3.141159920647624E+001	-2.1358117E-001	-2.1364148E-001	-6.156790731389625E-003	1.3153459E-006
2	0	0	1	3.191229919382749E+001	-2.1858820E-001	-2.1863212E-001	-6.264574638415080E-003	1.3696372E-006
2	0	0	1	3.241299918117875E+001	-2.2359517E-001	-2.2362529E-001	-6.519877337886510E-003	1.4580095E-006
2	0	0	0	3.291359916853253E+001	-2.2860120E-001	-2.2865732E-001	-6.658185151527107E-003	1.5224427E-006
2	0	0	1	3.341419915588631E+001	-2.3360717E-001	-2.3364687E-001	-6.850840709481124E-003	1.6006775E-006
2	0	0	0	3.391479914324009E+001	-2.3861323E-001	-2.3865576E-001	-7.098444523821204E-003	1.6940846E-006
2	0	0	1	3.441539913059387E+001	-2.4361925E-001	-2.4365580E-001	-7.343456624242536E-003	1.7892758E-006
2	0	0	0	3.491599911794765E+001	-2.4862523E-001	-2.4864332E-001	-7.453587271636544E-003	1.8532847E-006
2	0	0	1	3.541659910530143E+001	-2.5363126E-001	-2.5363842E-001	-7.607759824673876E-003	1.9296201E-006
2	0	0	1	3.591739909265016E+001	-2.5863922E-001	-2.5867450E-001	-7.748186131614503E-003	2.0042582E-006
2	0	0	0	3.641799908000394E+001	-2.6364523E-001	-2.6366547E-001	-8.011589123642943E-003	2.1123794E-006
2	0	0	1	3.691859906735772E+001	-2.6865128E-001	-2.6866886E-001	-8.258788913494061E-003	2.2188794E-006
2	0	0	0	3.741919905471150E+001	-2.7365732E-001	-2.7365792E-001	-8.468422450776364E-003	2.3174509E-006
2	0	0	1	3.791979904206528E+001	-2.7866334E-001	-2.7867544E-001	-8.680866694690315E-003	2.4191443E-006
2	0	0	0	3.842039902941906E+001	-2.8366935E-001	-2.8368998E-001	-8.951503319248211E-003	2.5394518E-006
2	0	0	1	3.892099901677284E+001	-2.8867534E-001	-2.8871557E-001	-9.202266358690203E-003	2.6568375E-006
2	0	0	0	3.942169900412409E+001	-2.9368234E-001	-2.9367658E-001	-9.370633755546781E-003	2.7519357E-006
2	0	0	0	3.992239899147535E+001	-2.9868931E-001	-2.9871270E-001	-9.510174473630312E-003	2.8408099E-006
2	0	0	1	4.042299897882913E+001	-3.0369535E-001	-3.0374682E-001	-9.717355306032918E-003	2.9516157E-006
2	0	0	0	4.094109896574082E+001	-3.0887634E-001	-3.0889761E-001	-1.003465638916945E-002	3.0996814E-006
2	0	0	0	4.145919895265251E+001	-3.1405744E-001	-3.1407991E-001	-1.041840294881250E-002	3.2722110E-006
2	0	0	1	4.195979894000629E+001	-3.1906348E-001	-3.1910244E-001	-1.061939496119069E-002	3.3886747E-006
2	0	0	0	4.246049892735755E+001	-3.2407039E-001	-3.2409349E-001	-1.082753279688889E-002	3.5091330E-006
2	0	0	0	4.296119891470880E+001	-3.2907739E-001	-3.2908079E-001	-1.108550883716555E-002	3.6480280E-006
2	0	0	1	4.346179890206258E+001	-3.3408341E-001	-3.3408090E-001	-1.139671479444401E-002	3.8074247E-006
2	0	0	0	4.396239888941636E+001	-3.3908939E-001	-3.3910587E-001	-1.167444041490039E-002	3.9588713E-006
2	0	0	1	4.446299887677014E+001	-3.4409541E-001	-3.4411779E-001	-1.194916995994574E-002	4.1119220E-006
2	0	0	0	4.496359886412392E+001	-3.4910154E-001	-3.4912831E-001	-1.218003738838652E-002	4.2523957E-006
2	0	0	1	4.546419885147770E+001	-3.5410756E-001	-3.5411334E-001	-1.243035217625168E-002	4.4017534E-006
2	0	0	0	4.596489883882896E+001	-3.5911453E-001	-3.5914940E-001	-1.268462554209165E-002	4.5556758E-006
2	0	0	0	4.646559882618021E+001	-3.6412150E-001	-3.6415592E-001	-1.297817686392991E-002	4.7260801E-006
2	0	0	1	4.696619881353399E+001	-3.6912745E-001	-3.6915502E-001	-1.327730747778166E-002	4.9013847E-006
2	0	0	0	4.746679880088777E+001	-3.7413350E-001	-3.7414858E-001	-1.346015476776248E-002	5.0360977E-006
2	0	0	1	4.796739878824155E+001	-3.7913951E-001	-3.7916741E-001	-1.386651133315130E-002	5.2577293E-006
2	0	0	0	4.846799877559533E+001	-3.8414553E-001	-3.8418281E-001	-1.420681214020128E-002	5.4580132E-006
2	0	0	1	4.896859876294911E+001	-3.8915163E-001	-3.8916317E-001	-1.450344933829359E-002	5.6442082E-006
2	0	0	0	4.946919875030289E+001	-3.9415765E-001	-3.9418766E-001	-1.476120187696359E-002	5.8186838E-006
2	0	0	1	4.996989873765415E+001	-3.9916459E-001	-3.9918897E-001	-1.504245352427708E-002	6.0047814E-006
2	0	0	1	5.047059872500540E+001	-4.0417156E-001	-4.0419516E-001	-1.546505975898677E-002	6.2509025E-006
2	0	0	0	5.097119871235918E+001	-4.0917748E-001	-4.0918869E-001	-1.574659135293144E-002	6.4433270E-006
2	0	0	1	5.147179869971296E+001	-4.1418356E-001	-4.1418731E-001	-1.602624898510897E-002	6.6378689E-006
2	0	0	0	5.197239868706674E+001	-4.1918954E-001	-4.1922954E-001	-1.639865345170109E-002	6.8748000E-006
2	0	0	1	5.247299867442052E+001	-4.2419562E-001	-4.2421302E-001	-1.665774171788634E-002	7.0664310E-006
2	0	0	0	5.297359866177430E+001	-4.2920172E-001	-4.2922321E-001	-1.705321639760538E-002	7.3196361E-006
2	0	0	1	5.347429864912556E+001	-4.3420869E-001	-4.3423331E-001	-1.763012647075499E-002	7.6555880E-006
2	0	0	1	5.397499863647681E+001	-4.3921557E-001	-4.3925273E-001	-1.782220412764949E-002	7.8284520E-006
2	0	0	0	5.447559862383059E+001	-4.4422156E-001	-4.4424489E-001	-1.829518039861297E-002	8.1275402E-006
2	0	0	1	5.497619861118437E+001	-4.4922757E-001	-4.4924733E-001	-1.871465266466876E-002	8.4075082E-006
2	0	0	0	5.547679859853815E+001	-4.5423359E-001	-4.5425215E-001	-1.902247349739794E-002	8.6409991E-006
2	0	0	1	5.597739858589193E+001	-4.5923963E-001	-4.5927012E-001	-1.942431900657032E-002	8.9210089E-006
2	0	0	0	5.647799857324571E+001	-4.6424568E-001	-4.6425867E-001	-1.976868995587211E-002	9.1777856E-006
2	0	0	1	5.697859856059949E+001	-4.6925172E-001	-4.6927202E-001	-2.044214679594533E-002	9.5929272E-006
2	0	0	1	5.747939854794822E+001	-4.7425967E-001	-4.7429529E-001	-2.077248209185767E-002	9.8522905E-006
2	0	0	0	5.797999853530200E+001	-4.7926566E-001	-4.7928813E-001	-2.123446821439473E-002	1.0177429E-005
2	0	0	1	5.848059852265578E+001	-4.8427159E-001	-4.8430911E-001	-2.170435431289131E-002	1.0511617E-005
2	0	0	0	5.898119851000956E+001	-4.8927766E-001	-4.8931038E-001	-2.214286621420686E-002	1.0834734E-005
2	0	0	1	5.948179849736334E+001	-4.9428368E-001	-4.9432990E-001	-2.254594010860539E-002	1.1145133E-005
2	0	0	0	5.998239848471712E+001	-4.9928969E-001	-4.9932519E-001	-2.317866040892996E-002	1.1573689E-005
2	0	0	1	6.048299847207090E+001	-5.0429577E-001	-5.0432235E-001	-2.371846613217538E-002	1.1961753E-005
2	0	0	0	6.098369845942216E+001	-5.0930279E-001	-5.0934422E-001	-2.414663465159791E-002	1.2298949E-005
2	0	0	0	6.148439844677341E+001	-5.1430982E-001	-5.1436740E-001	-2.465840138115383E-002	1.2683478E-005
2	0	0	1	6.198499843412719E+001	-5.1931572E-001	-5.1935357E-001	-2.519143660385265E-002	1.3083262E-005
2	0	0	0	6.248559842148097E+001	-5.2432168E-001	-5.2436352E-001	-2.575708248563968E-002	1.3506075E-005
2	0	0	1	6.298619840883475E+001	-5.2932775E-001	-5.2936459E-001	-2.623087760508172E-002	1.3885698E-005
2	0	0	0	6.348679839618853E+001	-5.3433365E-001	-5.3437155E-001	-2.686190349828071E-002	1.4354237E-005
2	0	0	1	6.398739838354231E+001	-5.3933978E-001	-5.3937399E-001	-2.728504579463065E-002	1.4716844E-005
2	0	0	0	6.448809837089357E+001	-5.4434687E-001	-5.4439133E-001	-2.801768034114088E-002	1.5252583E-005
2	0	0	0	6.498879835824482E+001	-5.4935390E-001	-5.4939818E-001	-2.851944569010587E-002	1.5668531E-005
2	0	0	1	6.548939834559860E+001	-5.5435997E-001	-5.5439973E-001	-2.903955078897114E-002	1.6099519E-005
2	0	0	0	6.598999833295238E+001	-5.5936587E-001	-5.5941629E-001	-2.952036077569689E-002	1.6514170E-005
2	0	0	1	6.649059832030616E+001	-5.6437188E-001	-5.6439757E-001	-3.020672802090785E-002	1.7048604E-005
2	0	0	0	6.699119830765994E+001	-5.6937790E-001	-5.6942821E-001	-3.113497213049350E-002	1.7729131E-005
2	0	0	1	6.749179829501372E+001	-5.7438391E-001	-5.7442790E-001	-3.188329972312831E-002	1.8314657E-005
2	0	0	0	6.799239828236750E+001	-5.7938981E-001	-5.7941097E-001	-3.227658414530465E-002	1.8701407E-005
2	0	0	1	6.849309826971876E+001	-5.8439690E-001	-5.8442807E-001	-3.295647757911829E-002	1.9260691E-005
2	0	0	1	6.899379825707001E+001	-5.8940399E-001	-5.8945131E-001	-3.367094498717227E-002	1.9847383E-005
2	0	0	0	6.949439824442379E+001	-5.9441000E-001	-5.9446740E-001	-3.453722267099299E-002	2.0531254E-005
2	0	0	1	6.999499823177757E+001	-5.9941608E-001	-5.9946620E-001	-3.518884656639193E-002	2.1094524E-005
2	0	0	0	7.049559821913135E+001	-6.0442191E-001	-6.0446185E-001	-3.593721672488753E-002	2.1722677E-005
2	0	0	1	7.099619820648513E+001	-6.0942805E-001	-6.0946840E-001	-3.670640846212125E-002	2.2371396E-005
2	0	0	0	7.149679819383891E+001	-6.1443394E-001	-6.1447930E-001	-3.742360428690594E-002	2.2996030E-005
2	0	0	1	7.199749818119017E+001	-6.1944103E-001	-6.1949801E-001	-3.825134552991671E-002	2.3696633E-005
2	0	0	1	7.249819816854142E+001	-6.2444806E-001	-6.2450683E-001	-3.901427214689418E-002	2.4364679E-005
2	0	0	0	7.299879815589520E+001	-6.2945414E-001	-6.2949312E-001	-3.995858332842517E-002	2.5153653E-005
2	0	0	1	7.349939814324898E+001	-6.3446021E-001	-6.3451254E-001	-4.067855406404636E-002	2.5811052E-005
2	0	0	0	7.399999813060276E+001	-6.3946605E-001	-6.3950121E-001	-4.146673185559030E-002	2.6518026E-005
2	0	0	1	7.450059811795654E+001	-6.4447212E-001	-6.4448696E-001	-4.268210749778564E-002	2.7508062E-005
2	0	0	0	7.500119810531032E+001	-6.4947802E-001	-6.4949578E-001	-4.376766383531205E-002	2.8426914E-005
2	0	0	1	7.550179809266410E+001	-6.5448415E-001	-6.5449977E-001	-4.463359821777291E-002	2.9212681E-005
2	0	0	0	7.600249808001536E+001	-6.5949094E-001	-6.5950370E-001	-4.552922898063938E-002	3.0026695E-005
2	0	0	0	7.650319806736661E+001	-6.6449827E-001	-6.6450733E-001	-4.653893617394889E-002	3.0925465E-005
2	0	0	1	7.700379805472039E+001	-6.6950434E-001	-6.6952139E-001	-4.756608784125271E-002	3.1846514E-005
2	0	0	0	7.750439804207417E+001	-6.7451012E-001	-6.7452639E-001	-4.852768984290090E-002	3.2733209E-005
2	0	0	1	7.800499802942795E+001	-6.7951626E-001	-6.7951006E-001	-4.951527495864172E-002	3.3646127E-005
2	0	0	0	7.850559801678173E+001	-6.8452209E-001	-6.8452954E-001	-5.062437910222506E-002	3.4653884E-005
2	0	0	1	7.900619800413551E+001	-6.8952829E-001	-6.8954420E-001	-5.177308564371486E-002	3.5699832E-005
2	0	0	0	7.950689799148677E+001	-6.9453514E-001	-6.9456971E-001	-5.276035319766770E-002	3.6645743E-005
2	0	0	0	8.000759797883802E+001	-6.9954228E-001	-6.9956201E-001	-5.375717950807334E-002	3.7606482E-005
2	0	0	1	8.050819796619180E+001	-7.0454818E-001	-7.0458066E-001	-5.478261139832530E-002	3.8598770E-005
2	0	0	0	8.100879795354558E+001	-7.0955426E-001	-7.0957530E-001	-5.592929240739447E-002	3.9686045E-005
2	0	0	1	8.150939794089936E+001	-7.1456039E-001	-7.1457583E-001	-5.725027397405613E-002	4.0909661E-005
2	0	0	0	8.200999792825314E+001	-7.1956617E-001	-7.1957284E-001	-5.881864976836287E-002	4.2324304E-005
2	0	0	1	8.251059791560692E+001	-7.2457236E-001	-7.2457218E-001	-5.984803409128947E-002	4.3364220E-005
2	0	0	0	8.301129790295818E+001	-7.2957915E-001	-7.2958213E-001	-6.109842266106193E-002	4.4576318E-005
2	0	0	0	8.351199789030943E+001	-7.3458630E-001	-7.3457235E-001	-6.237764102268550E-002	4.5820889E-005
2	0	0	1	8.401259787766321E+001	-7.3959231E-001	-7.3959750E-001	-6.357328395876105E-002	4.7018642E-005
2	0	0	0	8.451319786501699E+001	-7.4459827E-001	-7.4460131E-001	-6.464037208572165E-002	4.8131307E-005
2	0	0	1	8.501379785237077E+001	-7.4960458E-001	-7.4960661E-001	-6.601633641178517E-002	4.9486283E-005
2	0	0	0	8.551439783972455E+001	-7.5461030E-001	-7.5463182E-001	-6.745102345863563E-002	5.0900690E-005
2	0	0	1	8.601499782707833E+001	-7.5961643E-001	-7.5963432E-001	-6.902141430490194E-002	5.2431034E-005
2	0	0	0	8.651559781443211E+001	-7.6462221E-001	-7.6462358E-001	-7.080134550552364E-002	5.4136377E-005
2	0	0	1	8.701629780178337E+001	-7.6962942E-001	-7.6965564E-001	-7.219098311201111E-002	5.5562199E-005
2	0	0	1	8.751699778913462E+001	-7.7463621E-001	-7.7467203E-001	-7.337095206247568E-002	5.6838424E-005
2	0	0	0	8.801759777648840E+001	-7.7964240E-001	-7.7965593E-001	-7.487090786068973E-002	5.8373549E-005
2	0	0	1	8.851819776384218E+001	-7.8464842E-001	-7.8466684E-001	-7.653534024779063E-002	6.0054743E-005
2	0	0	0	8.901879775119596E+001	-7.8965431E-001	-7.8967237E-001	-7.805683941611097E-002	6.1639330E-005
2	0	0	1	8.951939773854974E+001	-7.9466051E-001	-7.9470026E-001	-7.985323297774682E-002	6.3459389E-005
2	0	0	0	9.001999772590352E+001	-7.9966635E-001	-7.9969758E-001	-8.150319807171252E-002	6.5177912E-005
2	0	0	1	9.052059771325730E+001	-8.0467254E-001	-8.0469650E-001	-8.303954849708473E-002	6.6821631E-005
2	0	0	1	9.102139770060603E+001	-8.0968022E-001	-8.0969691E-001	-8.477592364262077E-002	6.8642803E-005
2	0	0	0	9.152199768795981E+001	-8.1468636E-001	-8.1472653E-001	-8.648692420578419E-002	7.0463189E-005
2	0	0	1	9.202259767531359E+001	-8.1969243E-001	-8.1972188E-001	-8.828433802153524E-002	7.2368603E-005
2	0	0	0	9.252319766266737E+001	-8.2469845E-001	-8.2472545E-001	-9.000105486643495E-002	7.4226162E-005
2	0	0	1	9.302379765002115E+001	-8.2970452E-001	-8.2975537E-001	-9.131560899171220E-002	7.5769618E-005
2	0	0	0	9.352439763737493E+001	-8.3471048E-001	-8.3474153E-001	-9.285037604567292E-002	7.7506062E-005
2	0	0	1	9.402499762472871E+001	-8.3971661E-001	-8.3975196E-001	-9.462064264971626E-002	7.9457866E-005
2	0	0	0	9.452569761207997E+001	-8.4472334E-001	-8.4477013E-001	-9.650091135337113E-002	8.1521088E-005
2	0	0	0	9.502639759943122E+001	-8.4973055E-001	-8.4976131E-001	-9.840194966602533E-002	8.3618172E-005
2	0	0	1	9.552699758678500E+001	-8.5473639E-001	-8.5477161E-001	-1.003553953742552E-001	8.5780943E-005
2	0	0	0	9.604509757369669E+001	-8.5991752E-001	-8.5995942E-001	-1.025774237265363E-001	8.8212422E-005
2	0	0	0	9.656319756060839E+001	-8.6509860E-001	-8.6514330E-001	-1.039884227910237E-001	8.9964888E-005
2	0	0	1	9.706379754796217E+001	-8.7010443E-001	-8.7015808E-001	-1.059621307824798E-001	9.2203802E-005
2	0	0	1	9.756459753531090E+001	-8.7511259E-001	-8.7515032E-001	-1.078769356615699E-001	9.4408533E-005
2	0	0	0	9.806519752266468E+001	-8.8011837E-001	-8.8012624E-001	-1.098836596901307E-001	9.6711490E-005
2	0	0	1	9.856579751001846E+001	-8.8512462E-001	-8.8516366E-001	-1.118877722188605E-001	9.9038989E-005
2	0	0	0	9.906639749737224E+001	-8.9013034E-001	-8.9015383E-001	-1.134868028690079E-001	1.0102071E-004
2	0	0	1	9.956699748472602E+001	-8.9513665E-001	-8.9516610E-001	-1.155446502927668E-001	1.0343165E-004
2	0	0	0	1.000675974720798E+002	-9.0014255E-001	-9.0016097E-001	-1.176159334420959E-001	1.0587327E-004
2	0	0	1	1.005681974594336E+002	-9.0514863E-001	-9.0517056E-001	-1.197519088377599E-001	1.0839590E-004
2	0	0	0	1.010688974467848E+002	-9.1015571E-001	-9.1017801E-001	-1.216663808824623E-001	1.1073807E-004
2	0	0	0	1.015695974341361E+002	-9.1516238E-001	-9.1518414E-001	-1.237524295117886E-001	1.1325626E-004
2	0	0	1	1.020701974214899E+002	-9.2016870E-001	-9.2018998E-001	-1.254042844292638E-001	1.1539576E-004
2	0	0	0	1.025707974088436E+002	-9.2517436E-001	-9.2520857E-001	-1.274258293827479E-001	1.1789547E-004
2	0	0	1	1.030713973961974E+002	-9.3018067E-001	-9.3021131E-001	-1.297740609901399E-001	1.2071730E-004
2	0	0	0	1.035719973835512E+002	-9.3518651E-001	-9.3522042E-001	-1.315788018419127E-001	1.2305519E-004
2	0	0	1	1.040725973709050E+002	-9.4019264E-001	-9.4022524E-001	-1.336126960844841E-001	1.2562603E-004
2	0	0	0	1.045731973582588E+002	-9.4519871E-001	-9.4523519E-001	-1.355809147763949E-001	1.2815585E-004
2	0	0	0	1.050739973456075E+002	-9.5020652E-001	-9.5023704E-001	-1.380275464151008E-001	1.3115889E-004
2	0	0	1	1.055745973329613E+002	-9.5521271E-001	-9.5521641E-001	-1.400596176043152E-001	1.3378724E-004
2	0	0	0	1.060751973203151E+002	-9.6021843E-001	-9.6023101E-001	-1.423818384029047E-001	1.3671945E-004
2	0	0	1	1.065757973076688E+002	-9.6522474E-001	-9.6524751E-001	-1.445364715260848E-001	1.3951348E-004
2	0	0	0	1.070763972950226E+002	-9.7023052E-001	-9.7026193E-001	-1.466928496601225E-001	1.4233049E-004
2	0	0	1	1.075769972823764E+002	-9.7523671E-001	-9.7525799E-001	-1.485802565500314E-001	1.4490409E-004
2	0	0	0	1.080775972697302E+002	-9.8024267E-001	-9.8027080E-001	-1.505037865528911E-001	1.4753446E-004
2	0	0	1	1.085782972570814E+002	-9.8524958E-001	-9.8528773E-001	-1.525587806087461E-001	1.5031430E-004
2	0	0	1	1.090789972444327E+002	-9.9025679E-001	-9.9028718E-001	-1.551638902832759E-001	1.5365682E-004
2	0	0	0	1.095795972317865E+002	-9.9526238E-001	-9.9526769E-001	-1.572195339853271E-001	1.5647552E-004
2	0	0	1	1.099399972226820E+002	-9.9886549E-001	-9.9887872E-001	-1.587997453812342E-001	1.5862168E-004
2	0	0	1	1.100511972198728E+002	-9.9999124E-001	-9.9995404E-001	-1.589091850651635E-001	1.5890188E-004