EC-Lab ASCII FILE
Nb header lines : 55                          

I-V Characterization

Run on channel : 1 (SN 6514)
User : 
CE vs. WE compliance from -10 V to 10 V
Electrode connection : standard
Ewe ctrl range : min = -1.10 V, max = 0.20 V
Safety Limits :
	Do not start on E overload
Acquisition started on : 06/15/2016 17:38:53
Saved on :
	File : B125-G54-UN-G-D1GB-C3 FW 100mVs_02_IVC_C01.mpr
	Directory : E:\EC-Lab measurements\B125-G54-UN-G-D1GB\
	Host : 10.0.2.15
Device : VSP (SN 0295)
Address : USB
EC-Lab for windows v11.01 (software)
Internet server v11.00 (firmware)
Command interpretor v11.00 (firmware)
Electrode material : 
Initial state : 
Electrolyte : 
Comments : 
Electrode surface area : 0.001 cm²
Characteristic mass : 0.001 g
Equivalent Weight : 0.000 g/eq.
Density : 0.000 g/cm3
tR (h:m:s)          0:00:0.0000         
dER/dt (mV/h)       0.0                 
dER (mV)            0                   
dtR (s)             0.0000              
dE/dt               100.000             
dE/dt unit          mV/s                
Ei (V)              0.100               
vs.                 Ref                 
EL (V)              -1.000              
vs.                 Ref                 
record              <I>                 
dI                  0.000               
unit dI             µA                  
tI (s)              0.1000              
step percent        100                 
N                   100                 
E range min (V)     -1.100              
E range max (V)     0.200               
I Range             Auto                
I Range min         Unset               
I Range max         Unset               
I Range init        Unset               
Bandwidth           5                   

mode	ox/red	error	control changes	time/s	control/V	Ewe/V	<I>/mA	P/W
2	0	0	1	1.105119972082321E+001	9.9984184E-002	9.9820547E-002	4.425337076187130E-001	4.4173958E-005
2	0	0	0	1.107649972018407E+001	9.7455718E-002	9.7364932E-002	1.119894483568183E+000	1.0903845E-004
2	0	0	0	1.112659971891844E+001	9.2443630E-002	9.2324167E-002	1.118625869419656E+000	1.0327620E-004
2	0	0	0	1.117659971765534E+001	8.7443225E-002	8.7333843E-002	1.117879158607281E+000	9.7628683E-005
2	0	0	0	1.122659971639223E+001	8.2445182E-002	8.2340568E-002	1.115374294596904E+000	9.1840557E-005
2	0	0	1	1.127679971512407E+001	7.7422991E-002	7.7328160E-002	1.115632187379844E+000	8.6269785E-005
2	0	0	1	1.132679971386096E+001	7.2424434E-002	7.2323442E-002	1.116154038777314E+000	8.0724101E-005
2	0	0	1	1.137679971259786E+001	6.7424573E-002	6.7308515E-002	1.115387082633493E+000	7.5075048E-005
2	0	0	0	1.142699971132970E+001	6.2402278E-002	6.2301870E-002	1.114224707831077E+000	6.9418282E-005
2	0	0	0	1.147699971006659E+001	5.7405476E-002	5.7297461E-002	1.112131684394235E+000	6.3722320E-005
2	0	0	0	1.152699970880349E+001	5.2403878E-002	5.2280717E-002	1.113018156348189E+000	5.8189387E-005
2	0	0	1	1.157709970753785E+001	4.7392957E-002	4.7282990E-002	1.112710716685810E+000	5.2612289E-005
2	0	0	1	1.162719970627222E+001	4.2385459E-002	4.2262703E-002	1.111931003479036E+000	4.6993209E-005
2	0	0	1	1.167719970500912E+001	3.7383206E-002	3.7284434E-002	1.112720513848432E+000	4.1487154E-005
2	0	0	0	1.172729970374348E+001	3.2374099E-002	3.2255717E-002	1.111017324787978E+000	3.5836660E-005
2	0	0	0	1.177739970247785E+001	2.7364777E-002	2.7243998E-002	1.108700130282237E+000	3.0205423E-005
2	0	0	0	1.182739970121474E+001	2.2362741E-002	2.2245118E-002	1.107500444322224E+000	2.4636478E-005
2	0	0	1	1.187749969994911E+001	1.7355248E-002	1.7235748E-002	1.106949300664533E+000	1.9079100E-005
2	0	0	1	1.192759969868348E+001	1.2344318E-002	1.2211236E-002	1.106236120489109E+000	1.3508510E-005
2	0	0	1	1.197759969742037E+001	7.3426766E-003	7.2176307E-003	1.103922393103208E+000	7.9677038E-006
2	0	0	1	1.202759969615727E+001	2.3457115E-003	2.2271455E-003	1.101215613961815E+000	2.4525673E-006
2	0	0	0	1.207779969488911E+001	-2.6763584E-003	-2.8060914E-003	1.097690692761995E+000	3.0802205E-006
2	0	0	0	1.212779969362600E+001	-7.6762047E-003	-7.8090783E-003	1.094321591016008E+000	8.5456431E-006
2	0	0	0	1.217779969236290E+001	-1.2674839E-002	-1.2788071E-002	1.091044415545217E+000	1.3952354E-005
2	0	0	1	1.222799969109474E+001	-1.7697090E-002	-1.7802142E-002	1.086110560740774E+000	1.9335093E-005
2	0	0	1	1.227799968983163E+001	-2.2695124E-002	-2.2797888E-002	1.081841469280787E+000	2.4663701E-005
2	0	0	1	1.232799968856853E+001	-2.7695566E-002	-2.7822217E-002	1.077116521978230E+000	2.9967770E-005
2	0	0	0	1.237809968730289E+001	-3.2707736E-002	-3.2811746E-002	1.072311913608445E+000	3.5184425E-005
2	0	0	0	1.242819968603726E+001	-3.7714031E-002	-3.7814271E-002	1.066980923915313E+000	4.0347106E-005
2	0	0	0	1.247819968477415E+001	-4.2716306E-002	-4.2815562E-002	1.059583310040995E+000	4.5366654E-005
2	0	0	1	1.252829968350852E+001	-4.7726627E-002	-4.7825977E-002	1.052402143862155E+000	5.0332161E-005
2	0	0	1	1.257839968224289E+001	-5.2734748E-002	-5.2842483E-002	1.046271477570595E+000	5.5287583E-005
2	0	0	1	1.262839968097978E+001	-5.7737060E-002	-5.7838541E-002	1.040669821167716E+000	6.0190825E-005
2	0	0	0	1.267849967971415E+001	-6.2745601E-002	-6.2858745E-002	1.032523766187351E+000	6.4903150E-005
2	0	0	0	1.272859967844852E+001	-6.7755505E-002	-6.7859709E-002	1.025636876255131E+000	6.9599417E-005
2	0	0	0	1.277859967718541E+001	-7.2757579E-002	-7.2846144E-002	1.019833670440268E+000	7.4290954E-005
2	0	0	1	1.282869967591978E+001	-7.7764511E-002	-7.7859573E-002	1.012633287929152E+000	7.8843193E-005
2	0	0	1	1.287879967465415E+001	-8.2776025E-002	-8.2870424E-002	1.005928505633934E+000	8.3361723E-005
2	0	0	1	1.292879967339104E+001	-8.7777056E-002	-8.7880440E-002	1.000740420488249E+000	8.7945511E-005
2	0	0	1	1.297879967212793E+001	-9.2774533E-002	-9.2867032E-002	9.950969445041302E-001	9.2411698E-005
2	0	0	0	1.302899967085978E+001	-9.7796753E-002	-9.7891912E-002	9.871265534045719E-001	9.6631702E-005
2	0	0	0	1.307899966959667E+001	-1.0279606E-001	-1.0289292E-001	9.782825404326427E-001	1.0065835E-004
2	0	0	0	1.312899966833356E+001	-1.0779529E-001	-1.0790505E-001	9.710994247821043E-001	1.0478654E-004
2	0	0	1	1.317919966706540E+001	-1.1281750E-001	-1.1292946E-001	9.657425517410498E-001	1.0906079E-004
2	0	0	1	1.322919966580230E+001	-1.1781497E-001	-1.1790711E-001	9.598528137189761E-001	1.1317348E-004
2	0	0	1	1.327919966453919E+001	-1.2281595E-001	-1.2292747E-001	9.529689175739779E-001	1.1714606E-004
2	0	0	0	1.332929966327356E+001	-1.2782751E-001	-1.2792265E-001	9.457476386497561E-001	1.2098255E-004
2	0	0	0	1.337939966200793E+001	-1.3283454E-001	-1.3292965E-001	9.392201543331353E-001	1.2485021E-004
2	0	0	0	1.342939966074482E+001	-1.3783668E-001	-1.3792697E-001	9.328915187457092E-001	1.2867090E-004
2	0	0	1	1.347949965947919E+001	-1.4284644E-001	-1.4296271E-001	9.262888266544245E-001	1.3242476E-004
2	0	0	1	1.352959965821356E+001	-1.4785521E-001	-1.4798369E-001	9.198902961995268E-001	1.3612876E-004
2	0	0	1	1.357959965695045E+001	-1.5285739E-001	-1.5297379E-001	9.134593747020610E-001	1.3973533E-004
2	0	0	0	1.362969965568482E+001	-1.5786538E-001	-1.5798777E-001	9.065324554569338E-001	1.4322104E-004
2	0	0	0	1.367979965441918E+001	-1.6287585E-001	-1.6299474E-001	8.995729309718996E-001	1.4662567E-004
2	0	0	0	1.372979965315608E+001	-1.6787794E-001	-1.6800253E-001	8.922640971147295E-001	1.4990263E-004
2	0	0	0	1.377979965189297E+001	-1.7287451E-001	-1.7300351E-001	8.863978693768857E-001	1.5334995E-004
2	0	0	1	1.382999965062481E+001	-1.7789662E-001	-1.7802514E-001	8.806260453774399E-001	1.5677357E-004
2	0	0	1	1.387999964936171E+001	-1.8289682E-001	-1.8303159E-001	8.745538765321914E-001	1.6007098E-004
2	0	0	1	1.392999964809860E+001	-1.8789521E-001	-1.8802920E-001	8.677634895680395E-001	1.6316488E-004
2	0	0	0	1.398019964683044E+001	-1.9291735E-001	-1.9303977E-001	8.596777499100288E-001	1.6595201E-004
2	0	0	0	1.403019964556734E+001	-1.9791590E-001	-1.9806230E-001	8.526363232778982E-001	1.6887511E-004
2	0	0	0	1.408019964430423E+001	-2.0291577E-001	-2.0306867E-001	8.463688791323989E-001	1.7187101E-004
2	0	0	1	1.413039964303607E+001	-2.0793787E-001	-2.0807795E-001	8.388884556598732E-001	1.7455420E-004
2	0	0	1	1.418039964177297E+001	-2.1293487E-001	-2.1307354E-001	8.312054126672592E-001	1.7710788E-004
2	0	0	1	1.423039964050986E+001	-2.1793644E-001	-2.1806553E-001	8.239609698122949E-001	1.7967749E-004
2	0	0	0	1.428049963924423E+001	-2.2294724E-001	-2.2307372E-001	8.173994850794664E-001	1.8234034E-004
2	0	0	0	1.433059963797859E+001	-2.2795500E-001	-2.2809450E-001	8.100290575349032E-001	1.8476318E-004
2	0	0	0	1.438059963671549E+001	-2.3295708E-001	-2.3309459E-001	8.042711077630034E-001	1.8747125E-004
2	0	0	1	1.443069963544986E+001	-2.3796637E-001	-2.3810263E-001	7.982665625587515E-001	1.9006936E-004
2	0	0	1	1.448079963418422E+001	-2.4297547E-001	-2.4312161E-001	7.909199958510875E-001	1.9228974E-004
2	0	0	1	1.453079963292112E+001	-2.4797779E-001	-2.4810939E-001	7.840994925673961E-001	1.9454244E-004
2	0	0	0	1.458089963165548E+001	-2.5298530E-001	-2.5309098E-001	7.767206628972971E-001	1.9658099E-004
2	0	0	0	1.463099963038985E+001	-2.5799641E-001	-2.5810984E-001	7.691671099089561E-001	1.9852960E-004
2	0	0	0	1.468099962912675E+001	-2.6299769E-001	-2.6311070E-001	7.624846383317898E-001	2.0061787E-004
2	0	0	0	1.473099962786364E+001	-2.6799494E-001	-2.6811573E-001	7.558584080399546E-001	2.0265752E-004
2	0	0	1	1.478119962659548E+001	-2.7301699E-001	-2.7312270E-001	7.486968941014105E-001	2.0448612E-004
2	0	0	1	1.483119962533237E+001	-2.7801678E-001	-2.7811679E-001	7.413435201445520E-001	2.0618008E-004
2	0	0	1	1.488119962406927E+001	-2.8301537E-001	-2.8313529E-001	7.338437353519485E-001	2.0777706E-004
2	0	0	0	1.493139962280111E+001	-2.8803769E-001	-2.8816199E-001	7.258627294945921E-001	2.0916606E-004
2	0	0	0	1.498139962153800E+001	-2.9303569E-001	-2.9314211E-001	7.183837997683451E-001	2.1058854E-004
2	0	0	0	1.503139962027490E+001	-2.9803637E-001	-2.9815099E-001	7.094759804363306E-001	2.1153096E-004
2	0	0	1	1.508149961900926E+001	-3.0304810E-001	-3.0315912E-001	7.014986277148347E-001	2.1266571E-004
2	0	0	1	1.513159961774363E+001	-3.0805486E-001	-3.0818018E-001	6.937398550846208E-001	2.1379687E-004
2	0	0	1	1.518159961648053E+001	-3.1305689E-001	-3.1318292E-001	6.858267885027693E-001	2.1478924E-004
2	0	0	0	1.523169961521489E+001	-3.1806719E-001	-3.1820142E-001	6.767486622205290E-001	2.1534238E-004
2	0	0	0	1.528179961394926E+001	-3.2307512E-001	-3.2320395E-001	6.675633297919124E-001	2.1575911E-004
2	0	0	0	1.533179961268615E+001	-3.2807758E-001	-3.2817376E-001	6.587220183664488E-001	2.1617528E-004
2	0	0	1	1.538189961142052E+001	-3.3308616E-001	-3.3317986E-001	6.491844712611594E-001	2.1629519E-004
2	0	0	1	1.543199961015489E+001	-3.3809611E-001	-3.3819991E-001	6.402182269788952E-001	2.1652174E-004
2	0	0	1	1.548199960889178E+001	-3.4309822E-001	-3.4321055E-001	6.308962192673757E-001	2.1653024E-004
2	0	0	0	1.553209960762615E+001	-3.4810516E-001	-3.4823650E-001	6.211462559478043E-001	2.1630579E-004
2	0	0	0	1.558219960636052E+001	-3.5311666E-001	-3.5321864E-001	6.118626154077447E-001	2.1612129E-004
2	0	0	0	1.563219960509741E+001	-3.5811770E-001	-3.5823083E-001	6.025261335616112E-001	2.1584344E-004
2	0	0	0	1.568219960383431E+001	-3.6311507E-001	-3.6323431E-001	5.935588513051335E-001	2.1560094E-004
2	0	0	1	1.573239960256615E+001	-3.6813739E-001	-3.6824712E-001	5.828259718856090E-001	2.1462399E-004
2	0	0	1	1.578239960130304E+001	-3.7313661E-001	-3.7324977E-001	5.726096690277371E-001	2.1372642E-004
2	0	0	1	1.583239960003993E+001	-3.7813616E-001	-3.7824461E-001	5.619220817045507E-001	2.1254399E-004
2	0	0	0	1.588259959877178E+001	-3.8315815E-001	-3.8326392E-001	5.512533611139325E-001	2.1127552E-004
2	0	0	0	1.593259959750867E+001	-3.8815561E-001	-3.8826507E-001	5.407854959852938E-001	2.0996812E-004
2	0	0	0	1.598259959624556E+001	-3.9315659E-001	-3.9326748E-001	5.297935077536060E-001	2.0835055E-004
2	0	0	1	1.603269959497993E+001	-3.9816815E-001	-3.9829871E-001	5.184936954244979E-001	2.0651537E-004
2	0	0	1	1.608279959371430E+001	-4.0317506E-001	-4.0329918E-001	5.073783844610880E-001	2.0462529E-004
2	0	0	1	1.613279959245119E+001	-4.0817732E-001	-4.0828404E-001	4.951866941056542E-001	2.0217682E-004
2	0	0	0	1.618289959118556E+001	-4.1318706E-001	-4.1329151E-001	4.831111916426121E-001	1.9966575E-004
2	0	0	0	1.623299958991993E+001	-4.1819611E-001	-4.1830707E-001	4.704178643385757E-001	1.9677912E-004
2	0	0	0	1.631299958789896E+001	-4.2619589E-001	-4.2625862E-001	4.507064426065037E-001	1.9211751E-004
2	0	0	1	1.636319958663080E+001	-4.3121836E-001	-4.3126982E-001	4.382769287321713E-001	1.8901561E-004
2	0	0	1	1.641319958536769E+001	-4.3621579E-001	-4.3627530E-001	4.252398890735500E-001	1.8552167E-004
2	0	0	1	1.646319958410459E+001	-4.4121647E-001	-4.4129094E-001	4.115993598754955E-001	1.8163507E-004
2	0	0	0	1.651329958283895E+001	-4.4622836E-001	-4.4628695E-001	3.971594089958641E-001	1.7724706E-004
2	0	0	0	1.656339958157332E+001	-4.5123485E-001	-4.5129162E-001	3.837987871479847E-001	1.7320518E-004
2	0	0	0	1.661339958031022E+001	-4.5623735E-001	-4.5631635E-001	3.693956948614385E-001	1.6856130E-004
2	0	0	1	1.666349957904458E+001	-4.6124756E-001	-4.6132118E-001	3.549763457094022E-001	1.6375810E-004
2	0	0	1	1.671359957777895E+001	-4.6625578E-001	-4.6631905E-001	3.402040452799380E-001	1.5864363E-004
2	0	0	1	1.676359957651584E+001	-4.7125793E-001	-4.7132146E-001	3.260205249644512E-001	1.5366047E-004
2	0	0	0	1.681369957525021E+001	-4.7626624E-001	-4.7633824E-001	3.112763183637033E-001	1.4827281E-004
2	0	0	0	1.686379957398458E+001	-4.8127636E-001	-4.8135093E-001	2.961390404980833E-001	1.4254681E-004
2	0	0	0	1.691379957272147E+001	-4.8627841E-001	-4.8636189E-001	2.803674321916697E-001	1.3636003E-004
2	0	0	1	1.696389957145584E+001	-4.9128529E-001	-4.9136561E-001	2.646128539868439E-001	1.3002165E-004
2	0	0	1	1.701399957019021E+001	-4.9629730E-001	-4.9639410E-001	2.484676769825245E-001	1.2333789E-004
2	0	0	1	1.706399956892710E+001	-5.0129801E-001	-5.0138992E-001	2.319900479784396E-001	1.1631747E-004
2	0	0	1	1.711399956766400E+001	-5.0629568E-001	-5.0638664E-001	2.153231336005103E-001	1.0903676E-004
2	0	0	0	1.716419956639584E+001	-5.1131791E-001	-5.1141042E-001	1.986631798617897E-001	1.0159842E-004
2	0	0	0	1.721419956513273E+001	-5.1631659E-001	-5.1641613E-001	1.815541422205698E-001	9.3757488E-005
2	0	0	0	1.726419956386962E+001	-5.2131629E-001	-5.2140665E-001	1.642863965906711E-001	8.5660016E-005
2	0	0	1	1.731439956260147E+001	-5.2633828E-001	-5.2642775E-001	1.468115879859766E-001	7.7285695E-005
2	0	0	1	1.736439956133836E+001	-5.3133571E-001	-5.3142619E-001	1.293780355512755E-001	6.8754875E-005
2	0	0	1	1.741439956007525E+001	-5.3633726E-001	-5.3642738E-001	1.117113015370910E-001	5.9925002E-005
2	0	0	0	1.746449955880962E+001	-5.4134846E-001	-5.4143727E-001	9.357339139825496E-002	5.0664123E-005
2	0	0	0	1.751459955754399E+001	-5.4635537E-001	-5.4645580E-001	7.546091270404709E-002	4.1236053E-005
2	0	0	0	1.756459955628088E+001	-5.5135775E-001	-5.5145192E-001	5.725279655575122E-002	3.1572166E-005
2	0	0	1	1.761469955501525E+001	-5.5636710E-001	-5.5647951E-001	3.904320658568741E-002	2.1726744E-005
2	0	0	1	1.766479955374962E+001	-5.6137615E-001	-5.6148142E-001	2.075566797237327E-002	1.1653922E-005
2	0	0	1	1.773009955210000E+001	-5.6790936E-001	-5.6799763E-001	-3.545723333700249E-003	2.0139626E-006
2	0	0	0	1.779539955045038E+001	-5.7443821E-001	-5.7454097E-001	-2.762871679495221E-002	1.5873829E-005
2	0	0	1	1.784549954918475E+001	-5.7944655E-001	-5.7953256E-001	-4.635185861514601E-002	2.6862412E-005
2	0	0	1	1.789559954791912E+001	-5.8445656E-001	-5.8454746E-001	-6.505452318322202E-002	3.8027458E-005
2	0	0	1	1.794559954665601E+001	-5.8945912E-001	-5.8954263E-001	-8.389527123656104E-002	4.9459839E-005
2	0	0	0	1.801079954500892E+001	-5.9597713E-001	-5.9608191E-001	-1.087221038009607E-001	6.4807282E-005
2	0	0	0	1.807579954336688E+001	-6.0247529E-001	-6.0256958E-001	-1.332451059688409E-001	8.0289450E-005
2	0	0	0	1.812579954210378E+001	-6.0747725E-001	-6.0755819E-001	-1.522114097388478E-001	9.2477290E-005
2	0	0	1	1.817589954083815E+001	-6.1248785E-001	-6.1259282E-001	-1.711976522609307E-001	1.0487445E-004
2	0	0	1	1.822599953957251E+001	-6.1749607E-001	-6.1759621E-001	-1.901722177775445E-001	1.1744964E-004
2	0	0	1	1.827599953830941E+001	-6.2249804E-001	-6.2260097E-001	-2.089692096813303E-001	1.3010444E-004
2	0	0	0	1.832609953704377E+001	-6.2750697E-001	-6.2761664E-001	-2.276580871645866E-001	1.4288201E-004
2	0	0	0	1.837619953577814E+001	-6.3251632E-001	-6.3262659E-001	-2.462074415203004E-001	1.5575737E-004
2	0	0	0	1.842619953451504E+001	-6.3751864E-001	-6.3761556E-001	-2.652075354307737E-001	1.6910046E-004
2	0	0	1	1.847629953324940E+001	-6.4252567E-001	-6.4260346E-001	-2.836408090712319E-001	1.8226856E-004
2	0	0	1	1.852639953198377E+001	-6.4753723E-001	-6.4762241E-001	-3.019601105369136E-001	1.9555613E-004
2	0	0	1	1.857639953072066E+001	-6.5253830E-001	-6.5262347E-001	-3.202007038980934E-001	2.0897049E-004
2	0	0	1	1.862639952945756E+001	-6.5753579E-001	-6.5760309E-001	-3.383564457988211E-001	2.2250424E-004
2	0	0	0	1.867659952818940E+001	-6.6255802E-001	-6.6261727E-001	-3.565043968391652E-001	2.3622597E-004
2	0	0	0	1.872659952692629E+001	-6.6755748E-001	-6.6763651E-001	-3.743393345044614E-001	2.4992260E-004
2	0	0	0	1.877659952566319E+001	-6.7255628E-001	-6.7263502E-001	-3.918592146408724E-001	2.6357823E-004
2	0	0	1	1.882679952439503E+001	-6.7757833E-001	-6.7765146E-001	-4.094730626431141E-001	2.7748002E-004
2	0	0	1	1.887679952313192E+001	-6.8257630E-001	-6.8263286E-001	-4.268780215566643E-001	2.9140097E-004
2	0	0	1	1.892679952186882E+001	-6.8757713E-001	-6.8765080E-001	-4.439333060470521E-001	3.0527110E-004
2	0	0	0	1.897689952060318E+001	-6.9258875E-001	-6.9265229E-001	-4.615121601039647E-001	3.1966745E-004
2	0	0	0	1.902699951933755E+001	-6.9759589E-001	-6.9765896E-001	-4.783947110573141E-001	3.3375635E-004
2	0	0	0	1.907699951807444E+001	-7.0259786E-001	-7.0267010E-001	-4.949365740683191E-001	3.4777712E-004
2	0	0	1	1.912709951680881E+001	-7.0760792E-001	-7.0769429E-001	-5.114457007174110E-001	3.6194720E-004
2	0	0	1	1.917719951554318E+001	-7.1261609E-001	-7.1270353E-001	-5.275949847047816E-001	3.7601881E-004
2	0	0	1	1.922719951428007E+001	-7.1761853E-001	-7.1768510E-001	-5.438029111143163E-001	3.9027925E-004
2	0	0	0	1.927729951301444E+001	-7.2262663E-001	-7.2268766E-001	-5.598136841947219E-001	4.0457046E-004
2	0	0	0	1.932739951174881E+001	-7.2763705E-001	-7.2770065E-001	-5.749490830741446E-001	4.1839082E-004
2	0	0	0	1.937739951048570E+001	-7.3263931E-001	-7.3270345E-001	-5.900765540211452E-001	4.3235114E-004
2	0	0	1	1.942749950922007E+001	-7.3764586E-001	-7.3770142E-001	-6.042435165231043E-001	4.4575130E-004
2	0	0	1	1.947759950795444E+001	-7.4265772E-001	-7.4272436E-001	-6.188072527244546E-001	4.5960321E-004
2	0	0	1	1.952759950669133E+001	-7.4765849E-001	-7.4772859E-001	-6.335206955501640E-001	4.7370154E-004
2	0	0	1	1.957759950542822E+001	-7.5265598E-001	-7.5271958E-001	-6.477853921814649E-001	4.8760074E-004
2	0	0	0	1.962779950416007E+001	-7.5767845E-001	-7.5775075E-001	-6.614013708112658E-001	5.0117739E-004
2	0	0	0	1.967779950289696E+001	-7.6267719E-001	-7.6274490E-001	-6.747757700413821E-001	5.1468180E-004
2	0	0	0	1.972779950163385E+001	-7.6767707E-001	-7.6775873E-001	-6.890251970526222E-001	5.2900513E-004
2	0	0	1	1.977799950036570E+001	-7.7269918E-001	-7.7278548E-001	-7.019590602903421E-001	5.4246379E-004
2	0	0	1	1.982799949910259E+001	-7.7769631E-001	-7.7777559E-001	-7.151810501276985E-001	5.5625034E-004
2	0	0	1	1.987799949783948E+001	-7.8269774E-001	-7.8277403E-001	-7.276441735100825E-001	5.6958094E-004
2	0	0	0	1.992809949657385E+001	-7.8770894E-001	-7.8779030E-001	-7.397966855909255E-001	5.8280467E-004
2	0	0	0	1.997819949530822E+001	-7.9271603E-001	-7.9280525E-001	-7.524270041018184E-001	5.9652806E-004
2	0	0	0	2.002819949404511E+001	-7.9771811E-001	-7.9780382E-001	-7.648344598175267E-001	6.1018782E-004
2	0	0	1	2.007829949277948E+001	-8.0272764E-001	-8.0280226E-001	-7.766080528272032E-001	6.2346272E-004
2	0	0	1	2.012839949151385E+001	-8.0773687E-001	-8.0783880E-001	-7.880257621403644E-001	6.3659780E-004
2	0	0	1	2.017839949025074E+001	-8.1273901E-001	-8.1282574E-001	-7.993526161248887E-001	6.4973440E-004
2	0	0	0	2.022849948898511E+001	-8.1774682E-001	-8.1784320E-001	-8.105287591511319E-001	6.6288543E-004
2	0	0	0	2.027859948771948E+001	-8.2275748E-001	-8.2285368E-001	-8.220562652467969E-001	6.7643204E-004
2	0	0	0	2.032859948645637E+001	-8.2775933E-001	-8.2785523E-001	-8.328624185695901E-001	6.8948953E-004
2	0	0	0	2.037859948519326E+001	-8.3275568E-001	-8.3285189E-001	-8.435619246998165E-001	7.0256216E-004
2	0	0	1	2.042879948392510E+001	-8.3777809E-001	-8.3786571E-001	-8.538375347189131E-001	7.1540120E-004
2	0	0	1	2.047879948266200E+001	-8.4277815E-001	-8.4285593E-001	-8.632559498861916E-001	7.2760042E-004
2	0	0	1	2.052879948139889E+001	-8.4777677E-001	-8.4786648E-001	-8.742808710482529E-001	7.4127346E-004
2	0	0	0	2.057899948013073E+001	-8.5279900E-001	-8.5290009E-001	-8.849547888823057E-001	7.5477804E-004
2	0	0	0	2.062899947886763E+001	-8.5779727E-001	-8.5787916E-001	-8.943252136754829E-001	7.6722295E-004
2	0	0	0	2.067899947760452E+001	-8.6279726E-001	-8.6288470E-001	-9.028094682431664E-001	7.7902048E-004
2	0	0	1	2.072909947633889E+001	-8.6780977E-001	-8.6790419E-001	-9.116963115024170E-001	7.9126505E-004
2	0	0	1	2.077919947507326E+001	-8.7281567E-001	-8.7291026E-001	-9.205289940034840E-001	8.0353918E-004
2	0	0	1	2.082919947381015E+001	-8.7781799E-001	-8.7790138E-001	-9.298348058035586E-001	8.1630325E-004
2	0	0	0	2.087929947254452E+001	-8.8282859E-001	-8.8290054E-001	-9.376500774845331E-001	8.2785176E-004
2	0	0	0	2.092939947127888E+001	-8.8783664E-001	-8.8790959E-001	-9.455276957840582E-001	8.3954312E-004
2	0	0	0	2.097939947001578E+001	-8.9283890E-001	-8.9291638E-001	-9.538166684070735E-001	8.5167855E-004
2	0	0	1	2.102949946875015E+001	-8.9784765E-001	-8.9792138E-001	-9.611228463348436E-001	8.6301274E-004
2	0	0	1	2.107959946748451E+001	-9.0285730E-001	-9.0292859E-001	-9.683282142630105E-001	8.7433122E-004
2	0	0	1	2.112959946622141E+001	-9.0785962E-001	-9.0794694E-001	-9.752077090138194E-001	8.8543684E-004
2	0	0	0	2.117969946495577E+001	-9.1286612E-001	-9.1294998E-001	-9.827084859707931E-001	8.9716370E-004
2	0	0	0	2.122979946369014E+001	-9.1787779E-001	-9.1794014E-001	-9.905362774662332E-001	9.0925302E-004
2	0	0	0	2.127979946242704E+001	-9.2287898E-001	-9.2296326E-001	-9.970907234797508E-001	9.2027808E-004
2	0	0	0	2.132979946116393E+001	-9.2787683E-001	-9.2796397E-001	-1.003362796934660E+000	9.3108451E-004
2	0	0	1	2.137999945989577E+001	-9.3289870E-001	-9.3297696E-001	-1.010609634252494E+000	9.4287551E-004
2	0	0	1	2.142999945863266E+001	-9.3789816E-001	-9.3796557E-001	-1.019407371869878E+000	9.5616904E-004
2	0	0	1	2.149499945699063E+001	-9.4440180E-001	-9.4451898E-001	-1.031235425172181E+000	9.7402144E-004
2	0	0	0	2.156019945534354E+001	-9.5091707E-001	-9.5105594E-001	-1.038206676535371E+000	9.8739262E-004
2	0	0	0	2.161019945408043E+001	-9.5591903E-001	-9.5603013E-001	-1.044315605017200E+000	9.9839724E-004
2	0	0	1	2.166029945281480E+001	-9.6092677E-001	-9.6103960E-001	-1.052624241174623E+000	1.0116136E-003
2	0	0	1	2.171039945154917E+001	-9.6593803E-001	-9.6608132E-001	-1.059823408265974E+000	1.0238755E-003
2	0	0	1	2.176039945028606E+001	-9.7093946E-001	-9.7108310E-001	-1.065601919669712E+000	1.0347880E-003
2	0	0	1	2.181039944902295E+001	-9.7593647E-001	-9.7606802E-001	-1.071457494793184E+000	1.0458154E-003
2	0	0	0	2.186059944775479E+001	-9.8095840E-001	-9.8110932E-001	-1.076535368722821E+000	1.0561988E-003
2	0	0	0	2.191059944649169E+001	-9.8595840E-001	-9.8610145E-001	-1.082342384270083E+000	1.0672994E-003
2	0	0	0	2.196059944522858E+001	-9.9095696E-001	-9.9108720E-001	-1.087659472735742E+000	1.0779654E-003
2	0	0	1	2.201079944396042E+001	-9.9597901E-001	-9.9611020E-001	-1.092857453000393E+000	1.0886064E-003
2	0	0	1	2.204329944313940E+001	-9.9922335E-001	-9.9934620E-001	-1.096106004795967E+000	1.0953894E-003
2	0	0	0	2.205099944294489E+001	-9.9999887E-001	-1.0001352E+000	-1.101099789142609E+000	1.1012487E-003